Original,Filtered
16816.70282488356,1193.9161853271269
16860.74268210881,1197.4922463555638
16899.696391811318,1201.4789063499559
16930.25787296695,1205.9819404877644
16952.09907230342,1211.1882566358502
16968.083394158024,1217.3610097579108
16983.401414604534,1224.8013545433
17003.884348454892,1233.7896692257555
17034.033161260246,1244.5275344121283
17075.42479047377,1257.1024024436092
17126.070403724993,1271.4892001063786
17181.014515494324,1287.5895605012045
17234.054451932665,1305.2947323952822
17280.053088369088,1324.5478818541799
17317.054502212064,1345.3796436933678
17347.401145548673,1367.8987363520885
17377.327245444358,1392.2350651259887
17415.004607887833,1418.4508700013514
17467.592498922033,1446.449614255342
17538.2934827342,1475.9167763937462
17624.559463798807,1506.3187423730876
17718.32949568937,1536.9670201020103
17808.549167060082,1567.130543568639
17885.3955790601,1596.1570456307657
17944.883152431918,1623.5535946570258
17992.1363485957,1648.981938332973
18041.780633335453,1672.146920222689
18114.648751483477,1692.5909126867164
18231.15159704954,1709.4442646421371
18402.883269606624,1721.2094614076204
18624.912680605004,1725.6647637495505
18871.41778968265,1719.9561045192127
19096.68854371724,1700.905564926604
19242.164533496336,1665.5096423504706
19248.435969988885,1611.544814203752
19069.52997182045,1538.1571891749
18685.83952674263,1446.300019638012
18112.07990868455,1338.9034813747653
17397.742077856434,1220.712502766377
16619.398060901243,1097.7991155934706
15866.384277153633,976.8286399786487
15223.220520838058,864.2156267017904
14753.070042724494,765.3312534629848
14486.31531881208,683.9120099445184
14416.965610728754,621.7729383833328
14507.512210821036,578.859307775357
14700.610966549608,553.5959922057825
14934.240371725497,543.4325282552932
15156.240117038558,545.4483431040168
15334.559763496269,556.8837090042518
15460.97049811356,575.4950753761116
15547.95656469328,599.6878996802633
15620.408772080566,628.4404380475534
15705.0403418032,661.0822681721243
15820.797857737069,697.0196055011738
15972.914607163297,735.5005848659671
16151.914579343787,775.4901319774243
16337.284116419654,815.6846758009659
16504.185672704523,854.6539075760318
16630.876465722857,891.0619108863763
16704.56620955407,923.9016011897248
16724.195649322195,952.6774831024625
16699.73235660848,977.4896959824023
16648.669164880306,999.0004915416514
16591.13289922716,1018.2942366365684
16545.185706228403,1036.6660809910097
16523.55087852735,1055.3875540495644
16532.31626642314,1075.4980397108363
16571.44475126522,1097.6610281249696
16636.412674276777,1122.1070930091432
16720.148039377615,1148.6662427301594
16814.638508369873,1176.874696915991
16911.97665099952,1206.1280993260236
17004.995479930712,1235.8462102710905
17087.83881703954,1265.6136700154286
17156.731571621236,1295.2672039616814
17210.922781562196,1324.9108268058535
17253.434371548276,1354.8557657944193
17291.058904391004,1385.4987223749526
17333.15033399306,1417.1675937162124
17389.156256645023,1449.9741552604642
17465.41542889422,1483.7149438144418
17562.253684209863,1517.8525313642724
17672.604940259575,1551.5899277777557
17783.104029389957,1584.0245652569472
17877.858492423078,1614.341671299912
17944.112426551943,1641.9878288034029
17978.108617002283,1666.7614345750192
17989.00031300601,1688.7716669031986
17998.91287091203,1708.2503714874283
18038.2374223131,1725.245130731398
18136.721472558653,1739.2652648593685
18312.46223063386,1748.982438961284
18561.986497280075,1752.0927881604034
18854.789732896694,1745.4226455922121
19134.83039341201,1725.3078248113595
19329.692962269943,1688.208040293495
19365.915075179637,1631.4504964679563
19186.975419564693,1553.9486028994688
18769.29884152699,1456.7282188254112
18131.770523092662,1343.1215941377507
17335.710596710534,1218.554269264066
16474.68846746812,1089.9382549423399
15656.284029262237,964.7744933671514
14980.144605344747,850.1361525014219
14517.776416852246,751.7337491272133
14299.106440906296,673.2452748162902
14309.05379325276,616.0334858987314
14494.667354445131,579.2836614622444
14780.587811645262,560.5009547469693
15088.475534985211,556.2305666738966
15355.197827432285,562.8246858101386
15545.193777590484,577.0857097643676
15654.299545213033,596.6619127373793
15704.834162057949,620.1450957800367
15734.161246627027,646.8992255819401
15780.56638848862,676.7136185921449
15870.702795527686,709.4081723316632
16012.021039878358,744.515075753876
16191.846999210044,781.125364145437
16382.689616107007,817.9322425545179
16551.58770186398,853.4434044409226
16670.341543967857,886.2881680556369
16723.53481303959,915.5235984770783
16712.221511283045,940.8505156546001
16652.651053595484,962.6809294984187
16570.925926338114,982.0424066787043
16495.567388161875,1000.3489994580116
16450.326551930462,1019.1008125369108
16449.196267896532,1039.5876320374405
16494.664631630367,1062.6648134669538
16579.158433630313,1088.645962284281
16688.7190404259,1117.3247614654902
16807.49127704263,1148.1066813909001
16921.662368657566,1180.2079298034814
17021.953691810104,1212.8683842888818
17104.411887305145,1245.5281414085673
17169.812621468027,1277.9311770805014
17222.29664156404,1310.1398560130378
17267.8514258928,1342.4654829990798
17313.013619734127,1375.3382280186559
17363.862234481443,1409.151425117417
17425.168969170925,1444.118869811938
17499.56706561421,1480.1791946010808
17586.778253762903,1516.9697544869177
17683.180568698204,1553.875770072765
17782.143282678462,1590.1417010312878
17875.466670901948,1625.0146234232918
17955.91313360608,1657.8777632787971
18020.301680663302,1688.329916187783
18072.16329250572,1716.1754949728806
18122.75237419869,1741.310223585788
18189.44443645479,1763.5158058468514
18291.238962522963,1782.2070699080182
18442.06584297031,1796.1990973248935
18643.55671360946,1803.5717695676392
18879.53256365113,1801.6995679775819
19114.397075226967,1787.4844846871438
19296.82099074408,1757.784324347991
19368.71124727653,1709.9774437128917
19277.854011732416,1642.5610701695223
18991.293294179533,1555.6564466737682
18505.90876221431,1451.29888979647
17853.048929547236,1333.4262592573111
17095.42875898232,1207.5390794250413
16316.480333141955,1080.0763399313093
15604.402400469113,957.6156555388416
15034.685753652884,846.0484006227973
14655.424673019432,749.888246532859
14479.071299004425,671.8423428207956
14482.610771676033,612.7149209515906
14615.899214591218,571.6380974149758
14815.753155257808,546.5529792021712
15021.924024139387,534.813730415043
15190.742133229158,533.7701191455003
15303.048389283396,541.2032506308085
15364.77614305266,555.538015724499
15400.666907819716,575.8199218816867
15443.47474298818,601.5056635317109
15522.104806372085,632.1598689724322
15652.16551622121,667.1647927346779
15831.441172091334,705.5337151368268
16041.16071034884,745.8793846852902
16252.173581199406,786.538936731913
16433.779490507342,825.8112123898861
16562.37439390587,862.233669794661
16627.38762715387,894.8206321238913
16633.029406049573,923.2016650336919
16595.76581436781,947.6312013754451
16538.729702359793,968.877214849791
16485.06879599859,988.0267957251599
16452.322078652014,1006.2621670926007
16449.33779432525,1024.6595316700157
16476.24870208422,1044.0481101924295
16526.967832090886,1064.9446008551813
16592.915979347512,1087.5569812647739
16666.468053161003,1111.8373929500442
16742.939675690737,1137.5595583824074
16820.6625267663,1164.4005429951405
16899.521600554763,1192.0154825582267
16978.934799727795,1220.10201919465
17056.423022220235,1248.4547990987485
17127.595742019585,1277.0084957710396
17187.699577528743,1305.8625666670748
17234.118712263076,1335.2765048721444
17268.685556551194,1365.624944371548
17298.58827413346,1397.3098090109838
17335.11074444286,1430.640562628315
17390.271284733444,1465.7089407272492
17472.342473946068,1502.2948297757005
17581.878879800803,1539.839276085258
17709.966417213953,1577.5061746434092
17839.83256848004,1614.3281031486395
17951.853353165963,1649.4010707435004
18030.704008966488,1682.0678508685062
18072.375340788083,1712.020219557405
18088.4230097872,1739.2632805824207
18105.34752224269,1763.9200393447202
18158.3480727676,1785.9039002671793
18280.49420085044,1804.5371865897523
18490.062480035136,1818.2291178893752
18779.813109163097,1824.3334087741046
19111.920802019707,1819.27732038272
19421.029398673403,1798.99404585072
19625.74704347699,1759.6120839004986
19646.426834479524,1698.2789535108984
19425.020944558928,1613.9439098381192
18941.81096604123,1507.9121624878746
18224.272250490576,1384.0183775897942
17345.175999811487,1248.3441985768807
16409.79870707349,1108.5055910289116
15535.029211011026,972.6359800207124
14825.40263742743,848.2645481976875
14351.992119118742,741.3161168506069
14139.374364199162,655.4319681017209
14163.74681328794,591.7361645831301
14362.315155857716,549.0683439317474
14651.128163557816,524.5980628478491
14946.435286032112,514.6543117612423
15183.947880376258,515.5666744060388
15331.246420251597,524.3294645110009
15390.692726683184,538.9607736240555
15392.929124522076,558.5165961950885
15383.58085056321,582.8114310486858
15407.421768996215,611.966828139309
15494.606892037344,645.9411579987383
15652.605786272832,684.1817563803575
15865.554795928896,725.4912511538798
16100.498158998023,768.1298312053844
16318.07730200376,810.1055668841702
16484.177017034996,849.555071711677
16579.081664549947,885.0991623857235
16601.73154883041,916.0749609999394
16568.314845287405,942.5892751503873
16506.151656378795,965.393230195658
16445.111723933005,985.627985318492
16409.313821279666,1004.5219260439006
16411.499300303603,1023.1239115693747
16451.434229425333,1042.1363836363735
16518.34400359251,1061.875203841198
16596.15708451419,1082.3428427011988
16669.594549480873,1103.3706265398437
16729.07925880785,1124.772635483873
16773.01992370236,1146.4605433362326
16807.02047771663,1168.4906425804968
16840.627692274535,1191.0424227340648
16883.012069349854,1214.3521281870674
16939.238400281683,1238.6368433899697
17008.462263138834,1264.0418482161976
17084.61957319787,1290.6288428716218
17159.235606083705,1318.4020638977715
17225.19755187707,1347.3518032345396
17279.98283148545,1377.4873185551558
17327.038162650897,1408.8363913156893
17374.694907861784,1441.40455310087
17432.945662614093,1475.1067453802261
17509.262296319677,1509.6996095734646
17605.0908121154,1544.746793797378
17714.52421380394,1579.6397707666247
17825.941159853883,1613.675263271704
17926.322143102498,1646.1648564931331
18006.877377328678,1676.5325422006895
18067.931102409435,1704.3505742300606
18120.990824719705,1729.2775686842847
18186.66198169616,1750.8933299242988
18288.37024430647,1768.4641374645105
18443.33531587404,1780.707745731339
18653.41526753724,1785.6463241946644
18898.88209750832,1780.6290667416492
19137.676934947667,1762.5724707812865
19311.30150795051,1728.41199898223
19356.596976507564,1675.697749694632
19220.80017350724,1603.2160732832365
18876.033544582213,1511.4944617549666
18329.202359160445,1403.057882799816
17624.26174161661,1282.3509423877372
16835.743899233086,1155.3118082975793
16054.773151876982,1028.6631426531933
15370.87107241904,909.0519682361257
14854.054008977306,802.2068310637202
14541.687022992171,712.2769850257554
14433.280841727754,641.4753576035704
14494.267380733772,590.0759214793572
14667.386912102009,556.7352783811195
14888.356135732403,539.0384316669958
15101.51223306968,534.1270738380706
15271.390692992729,539.2643736554043
15387.571342881272,552.2220807321598
15462.17169005068,571.4331161151216
15521.455010446984,595.9188782740405
15594.545042288746,625.0572478827189
15702.790722995542,658.2905178691182
15852.80728240688,694.8754788819609
16034.863499671066,733.7527247022381
16226.555197694348,773.5685198809157
16400.147875018076,812.8341439742743
16531.03962632193,850.1683322590444
16604.715462233704,884.5482105238659
16620.282303864424,915.4965888227489
16589.894515521522,943.1555600605901
16534.677748598726,968.2298715471502
16478.724229106538,991.8181304733788
16443.101109639792,1015.1761992982912
16441.538302135385,1039.4692804479
16478.709112358476,1065.565992713288
16551.090300346692,1093.912296879173
16649.61486225419,1124.501223097358
16762.94718523091,1156.9323543242658
16880.28913813499,1190.537983199071
16993.067333959305,1224.5434280056286
17095.4339446079,1258.2273082567901
17183.98874882792,1291.0520174454396
17257.31951293504,1322.7429110878693
17315.81803001677,1353.3048831085903
17361.86121092115,1382.9758086840222
17400.04933331983,1412.1271246651659
17436.975559466406,1441.1319120342716
17480.09343036088,1470.228943698218
17535.64226967583,1499.4152003433337
17606.131615684248,1528.396979345406
17688.333518773772,1556.6193040989774
17772.851057960877,1583.375182281543
17845.994992360076,1607.973373056627
17893.95435388124,1629.9213328522337
17908.31472686209,1649.0659655691745
17891.19686663208,1665.6350842080733
17857.99210646016,1680.1404217166346
17836.06318334875,1693.137032404711
17858.83961864607,1704.8769842675597
17956.200929876773,1714.9360979255596
18143.46325189001,1721.9184552565207
18412.17478829576,1723.3441109393166
18725.91119561637,1715.7964051154563
19023.230122442303,1695.3501043552853
19228.102219803397,1658.2319926677255
19265.974699667247,1601.5988150346109
19081.7805304712,1524.2721508831305
18655.27289791309,1427.260339434203
18009.394377898305,1313.9299379527583
17208.973989759757,1189.7584088316744
16349.492460879756,1061.6905434076937
15538.297998054612,937.2115695969431
14872.738353933735,823.3169670922867
14420.584702143116,725.5849630435223
14207.576572755568,647.5349850221033
14215.050323840918,590.3890552950448
14387.946953920737,553.2597166362316
14650.780759621462,533.6912147148472
14927.14923392781,528.4047562884973
15157.622580132303,534.0623666471232
15311.541292062717,547.8750814841552
15390.130789799712,567.9351069006818
15420.83818781661,593.2322047964564
15445.179323795888,623.3994408495263
15503.989444752264,658.2999278887635
15624.389399865004,697.5977061110925
15811.96412704819,740.4461884165679
16049.911649672717,785.3820682532566
16304.81531950162,830.4462271451712
16536.845974546213,873.4858812405314
16711.122764712625,912.5428975712668
16806.902918609907,946.2145338723552
16822.16987487281,973.8879148342764
16772.711858417664,995.7915851681337
16686.439336448362,1012.8623917081975
16594.98930419995,1026.476900467525
16525.258580970713,1038.1290699865613
16493.28142432171,1049.141995860446
16501.952098181064,1060.4816848584358
16542.815295520108,1072.7032381281515
16600.913664880176,1086.0174883725242
16660.856657218326,1100.4324522352392
16712.076442070138,1115.90857640462
16751.681010043932,1132.4727731045336
16784.223591748847,1150.2596277196944
16818.77169559938,1169.4794886208542
16864.536376891716,1190.3409828656459
16926.74163882797,1212.9703128475376
17004.256625599624,1237.3669922439415
17089.843349899307,1263.4173869014942
17172.91878070177,1290.961008899209
17243.81070828782,1319.8802775715892
17297.912901622043,1350.1718746275403
17338.12009242831,1381.9621111037618
17374.475627669446,1415.4489323779146
17420.93072376878,1450.7823371235277
17490.18292513254,1487.9223665712695
17588.367585985336,1526.5286650734158
17711.617579564223,1565.9309651465683
17846.048923627022,1605.205311079691
17971.6657443188,1643.3432074405919
18069.313794931,1679.4623767524092
18128.586333765703,1712.982297265609
18153.935107763824,1743.6860744623607
18166.450319780924,1771.61645235687
18199.876357129444,1796.802926550387
18291.161398398675,1818.8758256743815
18467.70086190989,1836.673995532797
18734.835529720185,1847.9779825256458
19067.603158147765,1849.489025643285
19409.975965718862,1837.124473428986
19682.96369021128,1806.622547471789
19800.493270984305,1754.3630562935737
19689.591511212337,1678.2393687282995
19309.82379556951,1578.3820019552916
18666.709910442165,1457.5482537043142
17815.103920570928,1321.0553301872048
16851.00454803749,1176.2328762072568
15893.295950174115,1031.4808902037882
15059.65572662453,895.1127677672723
14442.516131089938,774.2161293597676
14091.033395322273,673.7617998471925
14003.464013483972,596.1337368398015
14131.59565987212,541.1542410321871
14395.706869365047,506.56450026804316
14705.82628042106,488.81944487128277
14983.57659120211,483.99318990713937
15179.005807672183,488.5816175464568
15278.44602027356,500.03223265742673
15302.082045609484,516.9145972448604
15292.774202144336,538.7437685186339
15299.94617554483,565.5573749175762
15363.4137689825,597.4016127034085
15501.662765471505,633.8900969554999
15707.477780625755,673.9628973427903
15951.517379609735,715.9043298986231
16192.129801320038,757.5983736127605
16388.065899082943,796.932922720842
16510.191802087935,832.2266826037112
16548.91050160392,862.5539113812422
16515.504791506748,887.879374570014
16437.510562728967,908.9757307976221
16349.940442581285,927.1592891067452
16285.223498724486,943.9289064853263
16264.857420565342,960.6134799136864
16295.019848818638,978.1218812505238
16367.04177381031,996.8509562104311
16462.14465665255,1016.7556243637102
16558.6333424713,1037.536647362262
16639.151448849538,1058.8708134062101
16695.77327563364,1080.6033906433306
16731.528993462736,1102.8435074938131
16758.15548535407,1125.941365473156
16791.058659690825,1150.3685113381366
16843.307536777105,1176.5547247394634
16920.71758987777,1204.7471492765278
17019.66757673172,1234.9458238239695
17128.36852296291,1266.9393503474396
17231.156105539456,1300.425903654233
17314.363902033485,1335.1716149288648
17371.772459636235,1371.1421921910733
17407.704514994453,1408.550442801469
17436.545354511643,1447.7903750963944
17478.609676376156,1489.268732833825
17553.508359061816,1533.183649827263
17673.099705818688,1579.323978929091
17836.419521568314,1626.9625253847996
18028.5273095204,1674.890325343634
18224.06893496039,1721.594237589309
18394.8501193794,1765.5301856453875
18519.29476413992,1805.4058017093287
18590.794827979884,1840.3729306923701
18621.976262541237,1870.0493035011245
18642.888934601684,1894.3367670420712
18692.85825478109,1913.0683024833534
18807.73699333511,1925.5788621628526
19005.96387885262,1930.3359912144626
19277.61921650265,1924.7704191866794
19580.243746863503,1905.4092492801417
19843.579737149965,1868.3419499874783
19982.99252635587,1809.9597025114072
19918.796392968005,1727.8256759242786
19596.784709105472,1621.4811410112247
19004.55690815045,1492.9866517200635
18179.02010117265,1347.043453422833
17202.568675952083,1190.6286115290648
16188.357722026578,1032.187062477223
15257.983882361084,880.5274056772552
14516.950650951025,743.6391824775477
14033.929700885155,627.6691031612846
13828.84543498702,536.2568187923521
13872.476387401854,470.3467038564252
14097.24293336127,428.4822278196824
14415.98192718629,407.48175721884695
14743.584878569058,403.31585582198875
15015.900539260678,411.97494964747307
15201.353855081124,430.1382567758638
15302.954778038358,455.52173646519714
15351.089437448947,486.8747412696718
15389.92043962477,523.6867224437783
15461.712317278188,565.73288263053
15593.58787886242,612.6150886361635
15790.148346470784,663.4374468354749
16033.448438034671,716.7027898291026
16289.620965227628,770.4443518321135
16519.63573384984,822.5374872235735
16690.736754641897,871.0885064690547
16785.225177769535,914.783180042583
16804.316927551616,953.0975523973859
16766.41839658015,986.3198438907474
16700.819251127003,1015.3890593009751
16639.018118562104,1041.606271878565
16606.363127505258,1066.3044890149827
16616.33721259273,1090.5657026133345
16668.823193639808,1115.0509192383356
16752.393890515836,1139.9697671449742
16849.49081000639,1165.1738725869247
16942.62098760021,1190.3255306431925
17019.594775775135,1215.079043531441
17076.327576273266,1239.2187078214504
17116.636114032088,1262.7203517672792
17149.465783145322,1285.7333667743308
17184.77106390507,1308.506748361125
17229.603550761734,1331.297327674849
17285.760936921524,1354.2974949018942
17349.708465304895,1377.6053324699174
17414.631227963506,1401.2388377708633
17473.704344629146,1425.1764812752901
17523.24058105335,1449.3961953013081
17564.437734051407,1473.8876436468427
17602.98288451965,1498.626799176162
17646.596328120297,1523.5214631176166
17701.427069146324,1548.3531271865168
17768.742418880338,1572.7470543064221
17843.3729405773,1596.1948744020788
17914.834087197276,1618.1339275579928
17971.09574278583,1638.0617160173501
18003.916734342623,1655.6418538686476
18013.8749057628,1670.7492513222287
18013.018454801142,1683.4126235809563
18023.5836367187,1693.6412955467963
18072.374085531912,1701.163545715156
18181.85740978237,1705.14331997605
18360.34561082495,1703.9675571513053
18594.32915015832,1695.1969855141149
18845.82755709454,1675.745048950232
19056.468817688277,1642.2970918726262
19158.18454424069,1591.917475889247
19088.41707588441,1522.7331484197114
18806.180818866877,1434.5456293061152
18304.71376298365,1329.2217111613456
17617.04734688786,1210.7497824987342
16812.511768087195,1084.916625147017
15984.53933366317,958.642961021746
15232.473427740384,839.0942411510382
14641.75596616356,732.7361958558179
14267.35698840322,644.5186735032819
14124.469921299144,577.3424405984084
14188.558931823538,531.8991169587896
14404.364570151323,506.89060200933807
14701.160742172508,499.55221214230096
15010.058216746917,506.3433315686291
15278.86322826242,523.6445015685441
15480.955368215886,548.3147220497643
15616.51490414101,578.0111679647788
15706.62502758484,611.2411640419208
15782.653835387728,647.1847464036226
15874.371182447976,685.3781629998095
16000.241824999168,725.3724528896081
16162.354216741536,766.4732474990117
16346.866627164993,807.633126512152
16529.194645837604,847.5177288996133
16681.91606005597,884.7158064001059
16782.847548791175,918.0248624769253
16821.016978981374,946.7268301137702
16799.135644705904,970.7749619337451
16732.325827160683,990.8399412764445
16643.905526794948,1008.2016544141534
16559.68660231446,1024.5124974803284
16502.38331947518,1041.4887097984163
16487.412479240982,1060.6012907997242
16520.78096254797,1082.8351676262891
16599.132757245694,1108.566427919129
16711.55318002315,1137.5780559865143
16842.49104080768,1169.202024057966
16975.13892939669,1202.5472417377848
17094.71460743896,1236.7548103451632
17191.207166236803,1271.2178476005713
17261.228329818867,1305.7134205354523
17308.65130275464,1340.416426019809
17343.792466566876,1375.794642686995
17381.07253316153,1412.4140716169645
17435.416310732402,1450.7071105138145
17518.06227055199,1490.7671177862085
17632.821108622775,1532.2280118783133
17773.970649117204,1574.2667577461184
17926.760306872045,1615.7339594014506
18070.88663197201,1655.3808816420712
18186.40672583213,1692.1196960918312
18260.632288161865,1725.2369745004485
18293.916014753348,1754.4849615812313
18302.18653362997,1780.0023755946077
18314.738789374245,1802.0616051896047
18367.04997218696,1820.6916720461436
18489.947433567424,1835.2722080743713
18697.83816958649,1844.219034244895
18979.445657476277,1844.8768879652846
19294.26669413044,1833.6969683161158
19576.710591720665,1806.7127057922066
19747.887049282283,1760.2509986072423
19732.800180869694,1691.7473236042156
19478.931930359115,1600.4906621316482
18971.425523761496,1488.1216085136537
18240.61243079552,1358.7482125990382
17359.39531672381,1218.6215198763448
16430.563129039638,1075.408861187307
15566.775267499175,937.1943762453276
14867.957755189243,811.3999662255316
14401.61793049917,703.8392780552175
14190.86876500046,618.0869488772623
14212.942560232732,555.272488293626
14408.224177454693,514.3111295724098
14697.115367349264,492.48715930488686
15000.109197942018,486.2326609428757
15255.827877281215,491.91350240879257
15432.59628507284,506.4507077853925
15531.109215719944,527.6624473490075
15578.3000577963,554.2927406232137
15614.890969768958,585.7751804660619
15680.63933512616,621.8420591184375
15801.604433144726,662.1164450854274
15982.827414214367,705.8126591145755
16207.99297294178,751.6258420855471
16445.508924853555,797.8289441336942
16658.640866324273,842.5341934231524
16816.374384435323,884.0327636816011
16901.76737542439,921.1113186599663
16915.59052701235,953.2588442682459
16874.650443452472,980.7146044386761
16805.820966006624,1004.3553365795547
16737.97764667768,1025.4625914754993
16694.421624931772,1045.437889115416
16687.941543326946,1065.5384756430424
16719.60795746335,1086.69122135605
16781.112839216436,1109.4136443341695
16859.387035409156,1133.8391839552078
16941.679431562483,1159.8182454255173
17019.390695999617,1187.053441855258
17089.62064801559,1215.228339684835
17154.330207794414,1244.1007938203911
17217.88329204566,1273.5487324005665
17284.221254209144,1303.571697178747
17354.88853177801,1334.261062715504
17428.62750180013,1365.7542381522262
17502.517577781888,1398.184943501099
17573.953621744473,1431.6363355673789
17642.412255312687,1466.0998640039163
17710.075603518493,1501.4421980927993
17780.917933182576,1537.3849127304202
17858.591784772063,1573.5043259687786
17944.07224653018,1609.2586631826873
18034.25810760799,1644.0443098209364
18122.45456376165,1677.2724643031127
18200.939445963653,1708.4450731250781
18264.89571908464,1737.199688960963
18316.230406648898,1763.2922611281497
18365.52166876848,1786.4982346617046
18430.717098047186,1806.4351937998315
18532.192083910584,1822.339584294042
18685.081309753758,1832.857144770249
18890.98508298777,1835.9217692991188
19131.786131112018,1828.7928620163523
19368.10122939845,1808.294094799614
19543.807278200788,1771.250791132333
19596.38719946723,1715.069252007801
19471.02649453121,1638.3534982940705
19135.02356906193,1541.427476014189
18588.62065653972,1426.6338696533996
17869.022748869127,1298.3167939786958
17046.018130320677,1162.4583171931167
16209.805076803224,1026.013770143671
15453.742180439614,896.059651655314
14856.157486077887,778.912887623977
14465.652457550246,679.3891163742531
14293.424813935708,600.3375577022334
14314.269270470104,542.528013888585
14475.633357150817,504.88710496275087
14712.05512029853,485.00559635982086
14961.057927673426,479.785158400348
15176.443472417204,486.0735646991083
15335.893046327605,501.15538704872034
15441.529539205656,523.0140291648593
15514.074551848564,550.3461159118035
15582.886618086994,582.372972283759
15675.050263799598,618.5398331533121
15806.61555468449,658.2110077536396
15978.165772815257,700.4563161127921
16175.454849072945,743.9869394527707
16374.36133872474,787.2496851740239
16548.281975998583,828.6420817569232
16675.61587856339,866.7792160855676
16745.234647118003,900.7339989863142
16758.64408471471,930.1858991667143
16728.623097771935,955.4430830961378
16675.132719270918,977.3392832992245
16619.942202245238,997.0387972581234
16581.575445242055,1015.8024474242586
16571.858940301307,1034.770358100491
16594.7095463681,1054.8054312637523
16647.06990494845,1076.4199445594872
16721.310589747292,1099.7841991595378
16808.128213965414,1124.7974816907538
16899.023582833575,1151.192036684829
16987.77453047955,1178.6409945541943
17070.777596281303,1206.8487832318065
17146.548929972178,1235.6131554000617
17214.908975315102,1264.8572644494282
17276.365690434446,1294.6354770298788
17331.987150676923,1325.117453677709
17383.723619198932,1356.5532530008018
17434.844092690095,1389.2206747492173
17490.022059394574,1423.3571855128364
17554.703750478388,1459.0833101610876
17633.69577160461,1496.330851068599
17729.308176190963,1534.794491849657
17839.724203431255,1573.9255843740539
17958.38447461415,1612.9797716815133
18074.98128299493,1651.1157578797602
18178.17354337791,1687.524341489795
18259.48581063272,1721.5506074898444
18317.25982052245,1752.7644876609097
18359.215933347165,1780.9407270384622
18402.32355122916,1805.9299124669526
18469.31036203195,1827.4340666710943
18582.13119237477,1844.735360768897
18753.794918890333,1856.4541923595375
18980.76720836694,1860.4231680354321
19238.417779359912,1853.7501531618336
19481.496429693845,1833.10649588178
19650.451149565208,1795.2228396189819
19682.818711832184,1737.51742691485
19527.3587756242,1658.7359034952724
19157.54163631835,1559.4611798821861
18580.80451796214,1442.3650002915358
17840.797184509658,1312.1191233899333
17011.488647974576,1174.9540663530606
16184.08236741418,1037.930872618079
15449.616735691325,908.0571524799466
14881.353984095278,791.4157767576951
14521.210595976578,692.4730509236858
14373.484703402632,613.6927382497176
14407.250942077397,555.5127696092212
14566.542171052428,516.6602501407759
14785.450250210642,494.70775360424545
15004.10764748111,486.72768527951365
15181.470332600768,489.89226275888046
15301.89256865012,501.8950477830899
15374.327976751025,521.1267373186222
15425.058286890757,546.6067907770281
15486.546694325025,577.7347319326377
15585.87461904234,613.9647081515843
15736.050691339047,654.5152272318455
15932.391491770824,698.203153230402
16154.53951235265,743.4458123198885
16373.01622614506,788.421818151304
16557.994969502237,831.3355430650073
16687.540785712674,870.7042867205073
16752.97023297691,905.5867649982371
16760.045744500952,935.6944158360783
16726.066630188838,961.3644608613268
16674.12481801034,983.4134163922798
16626.506566202603,1002.9199582890732
16599.267624551958,1020.9987924255493
16599.43203691278,1038.6205756475463
16625.295891128175,1056.5111951962695
16669.29238171511,1075.1353548251977
16722.12142829626,1094.7441622678198
16776.584459747362,1115.4519729761046
16829.8400992082,1137.30743806665
16883.48075714373,1160.3356984229365
16941.66878657655,1184.54699777978
17008.271083221534,1209.9239368931394
17084.257885571373,1236.4085615403278
17166.48339886168,1263.9083595259376
17248.40454584926,1292.3284569988768
17322.52283594384,1321.6211765352364
17383.629644378867,1351.830813091209
17431.55462694659,1383.1072394268108
17472.211696830323,1415.6696082699918
17516.296886997767,1449.7191226346365
17575.843474631685,1485.3214651857065
17659.69397908925,1522.2966282645161
17769.496796327232,1560.1589372162098
17897.85046678315,1598.139091268748
18029.64052525614,1635.294705070729
18146.583268821923,1670.6833512739054
18233.818555348007,1703.5433309914063
18286.472104298475,1733.4133802036113
18313.785127177965,1760.1306662788738
18338.869196606225,1783.6775417295917
18393.32830335869,1803.8947486395637
18507.59277935579,1820.1289830233604
18699.35514357897,1830.9201057218977
18963.478722474643,1833.844065603494
19266.788282744077,1825.6046410030237
19550.13353435958,1802.4127607399262
19738.24871133056,1760.6184687087152
19755.705663934583,1697.486502404756
19545.316359980745,1611.9528074746604
19084.2883028454,1505.1828940335727
18393.65084176704,1380.7813749935592
17537.97286483043,1244.5710377450198
16614.821258478758,1103.95379304786
15736.1113205749,966.9617375834891
15005.715088215156,841.1798888817592
14498.775366386202,732.7537104022465
14247.792415978489,645.6757629781215
14238.792176198624,581.481198006361
14418.234396799387,539.3877844549389
14708.52028089197,516.8166621660047
15027.796409345352,510.1499624522379
15308.818681446,515.5400621828671
15512.16670413783,529.5910625820547
15630.889890931136,549.7819813804159
15686.166520470488,574.5779346489078
15716.02634086355,603.2586122987955
15760.924230127328,635.5606830109762
15850.501641779412,671.2661488324219
15995.149266384726,709.8656160034034
16184.282926365831,750.3883442641518
16391.130969507896,791.4330480228568
16581.957905151197,831.3725311679295
16726.551912052782,868.6583166127265
16806.747330358325,902.1299628467108
16820.66594542083,931.240997299135
16781.88095259297,956.1442313993001
16714.314904985305,977.6224720683884
16644.874235291547,996.892885087098
16596.26842628214,1015.3429330864001
16582.096986638484,1034.266319935229
16605.31290379471,1054.6584179825759
16659.965187547103,1077.1074848973676
16735.104191024828,1101.7890986547498
16819.217206658752,1128.5454311512794
16903.663651112878,1157.0146437137776
16984.1913084818,1186.771323524541
17060.462186063418,1217.4450390906798
17134.265705472426,1248.7965991153894
17207.481271768513,1280.7454538468673
17280.7639868505,1313.3528821985508
17353.44693264823,1346.772264118601
17424.509703183645,1381.1801349001985
17493.936924679154,1416.7015244753345
17563.604629007415,1453.342109278903
17637.06308115161,1490.9388238531847
17718.132487233364,1529.139313162964
17808.856769217018,1567.4175152880734
17907.790395275828,1605.1263771523977
18009.61301550829,1641.57908877861
18106.62329301725,1676.1391046855897
18191.893322169504,1708.2902618312694
18263.05381615523,1737.6558941757796
18325.160382355825,1763.9433826065008
18391.11712634348,1786.808732047318
18478.776494172973,1805.6614420745827
18604.93682163735,1819.456498837793
18777.674164094205,1826.5391806847545
18989.34407477189,1824.6116004996236
19212.809573079525,1810.8730305534175
19402.830863196898,1782.3501408053448
19503.20173625234,1736.3854805100132
19458.5054514435,1671.2047071772995
19227.80945780648,1586.4487480803566
18796.732555025177,1483.547573178179
18184.43023141041,1365.833049169215
17443.187858210633,1238.3369513777156
16650.200596367067,1107.286259312929
15893.22392741766,979.3754967875389
15253.48557490891,860.9479117597247
14790.048483772656,757.2399427002537
14529.45901260988,671.8302491628648
14463.099682812086,606.3884598052122
14552.600403775792,560.7512425044245
14741.543468319,533.2814345824313
14970.129318361824,521.4077987402189
15188.88106675072,522.2125087480232
15367.985310140246,532.937017197995
15500.295808646048,551.3116092860986
15597.909139722722,575.6687211599723
15683.991765873592,604.8593027800615
15782.695232623895,638.0392714879011
15910.250439490374,674.4177911701054
16069.678537464091,713.0562621348473
16250.259053681102,752.7799877794084
16431.390632864208,792.2233307739447
16589.228837723047,829.9866985724136
16703.836697539424,864.8519651505982
16764.67373133932,895.9897679561346
16772.978304433193,923.0992455796402
16740.681401718477,946.4439336873676
16686.56071183933,966.778314825034
16631.075128239037,985.1883131154119
16591.52272319948,1002.8880064087762
16578.836627300778,1021.0200651454236
16596.6389104467,1040.4995679727647
16642.379310721022,1061.9242857870704
16709.7644585568,1085.5554961534338
16791.420115139266,1111.3576913437287
16880.869348178978,1139.076747204194
16973.355712715907,1168.3347797410447
17065.59349495678,1198.7239573424704
17154.967383684994,1229.8875567682335
17238.868674897796,1261.5814478899322
17314.69616941885,1293.7114563198966
17380.647907822942,1326.3422333658673
17436.961237337626,1359.6734547377057
17486.928447661503,1393.9817747146
17536.97730030234,1429.5332618197297
17595.40402481083,1466.4802104815476
17669.888699038762,1504.765255922815
17764.51028385676,1544.0603881660422
17877.372226891322,1583.7650055991505
17999.95874600213,1623.0740868983069
18118.90138315659,1661.1068865593447
18220.04251373414,1697.063763555918
18293.780383864145,1730.361477704145
18339.98574531392,1760.6929352903067
18370.5791984021,1787.9703770326764
18408.30005677314,1812.1407560905122
18481.227085076545,1832.9021950721358
18613.964386952328,1849.3900278937251
18817.6745443474,1859.9274228871743
19081.896076883608,1861.9384492975535
19371.012142544896,1852.095887693068
19627.262432678966,1826.725204271825
19780.51132500196,1782.4209291402426
19763.04452694043,1716.7687092242197
19526.02740618506,1629.0232425278407
19053.43885346233,1520.5829924508582
18369.603258211,1395.1327420205896
17537.869904385934,1258.3900268533096
16650.190111237273,1117.4768869629047
15809.72821525795,980.0235010136362
15110.541592704682,853.1734996700275
14619.226161879687,742.6854408010166
14362.979717566574,652.3040454596763
14326.8894105562,583.5130681492745
14460.85130821392,535.6944876921638
14694.045743090908,506.62803007605436
14953.011405529627,493.1935425634711
15178.594477805424,492.1037134402726
15337.581764745804,500.50341770834575
15426.469843888695,516.3202146750097
15467.076719041785,538.3236890101117
15495.911680430296,565.9289694938245
15550.766158184511,598.8413257913201
15658.47390030572,636.669187771691
15827.13795366812,678.6265711561364
16044.591355174478,723.4074601581323
16282.94468583697,769.2574009897894
16507.35378367521,814.208840036237
16686.098603775317,856.4030550562314
16798.95166124359,894.4037347180738
16841.592832497652,927.4179185928456
16825.19542073807,955.37328029371
16771.811544114596,978.8447797755125
16707.36127477273,998.8646844567285
16654.551048160632,1016.6763245733154
16627.809172711917,1033.4977454538132
16631.467810890044,1050.3475647173218
16661.262714996625,1067.958681695373
16708.15673879032,1086.7760515756527
16762.856087005017,1107.0122052499837
16819.354365129064,1128.7247546994436
16876.37538401679,1151.8847448341066
16936.470678616122,1176.4193279983426
17003.434525096705,1202.2296447871452
17079.306734566708,1229.1975455424654
17162.334839825413,1257.1979958877582
17246.838371579088,1286.1270912041773
17325.12343263138,1315.942336275067
17390.731980287183,1346.6987656622061
17441.702533651438,1378.5582223079323
17482.407257109426,1411.75366714321
17522.981456719514,1446.5053182467095
17576.23892889314,1482.9056999639995
17652.96884554062,1520.8083700074983
17757.26931097166,1559.762190172795
17883.7818053271,1599.0246215018085
18018.21644594716,1637.6641323311205
18141.50197005612,1674.7297352862984
18236.57642743973,1709.4354852692502
18295.69966399857,1741.290972022642
18325.64191075944,1770.11386050862
18348.441419197097,1795.889390434852
18396.61343016228,1818.4885537587538
18503.42663001858,1837.3086497186732
18690.620867670463,1850.9408258887474
18957.14109559634,1856.9842282548848
19272.654880106576,1852.1069976031326
19578.638460261303,1832.4017024075458
19797.85640291495,1794.0082620219507
19850.646667527533,1733.9000657612826
19674.26223158649,1650.6705484660831
19240.28945347981,1545.1360839438544
18565.29566591597,1420.5957414372197
17711.396482558885,1282.6559900073103
16775.99686256124,1138.6236042175058
15872.845672732015,996.569338698826
15108.927773658568,864.2429052110764
14562.903145404656,748.0558958622787
14270.431708816144,652.3337679529202
14219.8861955585,578.9745915362571
14359.176136777907,527.5572892839533
14611.47603145566,495.84000947855304
14895.399273298985,480.5059201134887
15144.205050245422,477.9693526365766
15319.196501858218,485.05919175803524
15414.344486998669,499.44494576884796
15451.76100891939,519.7487222079333
15470.175534527714,545.3711834057038
15510.316194744017,576.128797214241
15601.61216065101,611.8364135581402
15753.847778719362,651.9665091428647
15955.634931185055,695.478729055689
16179.418045075405,740.8542166602734
16390.850684526024,786.3069782873871
16559.316926126507,830.0966816973713
16666.3633794526,870.8456589313489
16709.76694731917,907.7707681514258
16702.510423550986,940.7727903370237
16667.54600069774,970.3705430112806
16630.396077834466,997.5099563902348
16612.053350437698,1023.3080516800768
16624.246515493534,1048.8014109398582
16668.143495146687,1074.758244549931
16736.351400291303,1101.5882588239806
16817.056191520354,1129.3542738102522
16898.633880324316,1157.8632082266356
16973.17118244881,1186.7982928616607
17037.94975788636,1215.851634580061
17094.804358662037,1244.8247041491209
17148.03377571184,1273.6791969483177
17201.958997734477,1302.5363798341389
17259.171336281222,1331.6349849018854
17320.061587322663,1361.2638138060884
17383.583560813637,1391.6858766767525
17448.65237738682,1423.0682038974978
17515.332899814766,1455.4278753033952
17585.12754732266,1488.6018481341116
17660.15060428866,1522.2458700071522
17741.568525415678,1555.8649374513216
17828.130415866897,1588.8729371836744
17915.69967623552,1620.671749379209
17998.355270221833,1650.7314313090083
18070.96333962136,1678.6461557004627
18132.376005841368,1704.1392300013943
18187.901571957416,1726.9979065318912
18249.65816721704,1746.9355253913773
18333.960123741457,1763.4020622902135
18455.871787337383,1775.38829613247
18622.19016764077,1781.2856008068497
18824.987162364527,1778.865405625853
19038.1005422752,1765.4255207239921
19218.43250490526,1738.1159087984104
19312.67353778279,1694.411005829291
19268.447344881817,1632.6507146253173
19047.361604776965,1552.5406061344247
18636.549589861188,1455.494323322422
18055.342377451874,1344.7226692517033
17354.782947603457,1225.021648671377
16609.525216876315,1102.2755330087994
15903.742584846495,982.755392029448
15314.388336640011,872.3419636073838
14895.977392992058,775.8212124809438
14670.72391305408,696.3857301207602
14626.447189007487,635.4285817774852
14722.554414336051,592.6499447584865
14902.236470840344,566.4277120842929
15107.405446997947,554.348545218178
15292.31838384964,553.7688755920161
15432.415046011272,562.2816318681439
15526.438735032243,578.0005995090953
15591.917475241102,599.6291818924956
15655.945404948996,626.3384626697617
15744.378713085056,657.5254937050966
15872.740215383968,692.5455633851852
16041.324731276298,730.5077933072973
16235.525580253425,770.1953837970619
16430.757423608913,810.1298802547842
16600.04623824113,848.7555804573221
16721.761971147138,884.6874540805501
16785.19947302245,916.9515204173215
16792.615224373156,945.1526062488886
16757.549648785644,969.5271495077507
16700.388432729662,990.8705086889222
16642.798752974297,1010.3598615232704
16602.756305748873,1029.317178461199
16591.4130516024,1048.9670464320516
16612.27524410994,1070.2403947297028
16662.374619353024,1093.6601340324476
16734.590675540894,1119.3233607717978
16820.155277664348,1146.972744477266
16910.6128881717,1176.1318148728808
16998.955481933586,1206.2681632891681
17080.079026141495,1236.946153307146
17150.93557200124,1267.93600143997
17210.71000928018,1299.257314797377
17261.095523456104,1331.1500288805862
17306.437747433753,1363.9815754708752
17353.348472141304,1398.1133214929532
17409.475889443805,1433.7591773512283
17481.457761118636,1470.8724144926246
17572.544653186833,1509.0916246781248
17680.748525813273,1547.7633555618365
17798.44297563723,1586.0392635841597
17914.009251699154,1623.023774321739
18015.441344284907,1657.929927585891
18095.00726849501,1690.1922479227346
18153.4189390112,1719.4905203387716
18201.77983679643,1745.658394994027
18260.01479699358,1768.4825944124082
18351.48630648801,1787.4347590213993
18494.795821878557,1801.408570112443
18694.941590527964,1808.5496296218314
18936.62949212726,1806.2576093189227
19182.321480653045,1791.4080286470423
19376.52062173417,1760.7901815047867
19456.08444247733,1711.6998523787265
19364.51084894529,1642.57564169246
19066.72338486563,1553.5404962329505
18560.373314729084,1446.7151383612236
17880.30142753818,1326.2092101592498
17094.450037331295,1197.7616520661377
16291.752005360864,1068.0789771854525
15564.71621179396,943.9895924935332
14990.93509620204,831.5761993675396
14618.103956573845,735.4547376036626
14456.238411025151,658.3350304229758
14478.854042483475,600.9333466997044
14632.47857911868,562.2269582362372
14851.688698681564,539.9657869545488
15075.51570002989,531.3051421436086
15260.909920333484,533.4083842605634
15389.999301041144,543.8913177410008
15469.779478260129,561.0332133923298
15525.050032815194,583.7469102942707
15587.22600696746,611.3636831771307
15682.602646799469,643.330950269158
15823.510971864072,678.9326142581997
16004.680856617471,717.1221408219257
16205.419143973771,756.5154177780157
16396.454904018898,795.5379900791202
16549.023553316823,832.6750090607458
16643.300466484627,866.7447794190971
16673.727928896686,897.1143762129232
16649.90740389682,923.7969951808323
16593.157773355546,947.4073969199545
16530.113851417565,968.9921662759557
16485.485751942273,989.7837255241074
16476.137746257777,1010.9427963696196
16508.027445138097,1033.3505821380638
16576.523776450947,1057.4924486237821
16669.551487177167,1083.446710204322
16772.23035097216,1110.964255030368
16871.406367200874,1139.604850605728
16958.74189555432,1168.8882935536026
17031.696297051578,1198.4230859418362
17092.52380273518,1227.988412869662
17146.057431018577,1257.5613647931407
17197.33046472549,1287.295322461644
17249.94839715657,1317.4638666904953
17305.65901732984,1348.386849419973
17364.98475271885,1380.353070040944
17428.319891098472,1413.5501837396775
17496.737640572166,1448.0095109756826
17571.953259355123,1483.5722966026447
17655.358378585526,1519.883818862666
17746.575048286188,1556.420464484327
17842.339219358473,1592.550377776456
17936.53383116421,1627.6198619090653
18021.806449627427,1661.0469124699907
18092.54044372328,1692.393799185027
18148.24534981614,1721.3871925998046
18195.979208386623,1747.8608374953233
18250.43999384024,1771.6133667818606
18330.93663976006,1792.199799740135
18455.446416651903,1808.7030558004496
18633.084357967386,1819.552658451758
18857.16788179394,1822.463277179147
19101.314352989037,1814.5507087881022
19320.48759009001,1792.6477174474976
19457.68161223353,1753.7935024529932
19455.310560695794,1695.8202116053842
19268.837089881792,1617.9217967541513
18879.209799546923,1521.0767802323207
18300.643919477498,1408.2137835642689
17581.255007360112,1284.0555831805395
16795.821909814385,1154.6443513753109
16032.035758296097,1026.6218220064895
15373.392294775258,906.3954935055849
14882.871484468016,799.3505001415601
14591.414062067855,709.2583321867211
14493.967550211131,637.9895333907634
14553.877156590564,585.5685504606157
14714.20684627639,550.5323300988349
14912.813482456624,530.4892835113911
15097.151255975305,522.7378595006941
15235.067818732436,524.8026602069453
15319.147913639305,534.7795892575901
15364.056650262904,551.4395957707515
15398.267240336394,574.1067591765342
15452.977807118092,602.3829505229902
15551.557217961818,635.8238392651322
15702.417657946682,673.6726163129273
15896.988550156791,714.7303589889971
16112.872417383667,757.3952184081397
16320.786132857867,799.8509996808285
16492.94678280278,840.3440067281342
16610.3762259453,877.4661433796953
16667.15741971195,910.3663788279239
16670.747078542314,938.838505479002
16638.672207205567,963.2713589071469
16592.940366257964,984.4862097490981
16554.003378263682,1003.5136955704265
16536.031093076046,1021.372450680211
16544.66050378407,1038.9024892519112
16577.51330857465,1056.683172830864
16626.911330728686,1075.036876531786
16683.62378810089,1094.0947428429533
16740.30866697213,1113.887448614088
16793.576123627714,1134.4246100225903
16844.18383720824,1155.7392392913785
16895.56367662086,1177.892567946263
16951.445528252483,1200.9519939592294
17013.61047788721,1224.9644672551465
17080.69663788541,1249.9462410819033
17148.54500532973,1275.8988653317617
17211.96430670531,1302.8456066875833
17267.223817113667,1330.8689861371556
17314.253529282996,1360.1248834118728
17357.568835698945,1390.8146045099315
17405.349399108592,1423.1119982465052
17466.7690563705,1457.062624549462
17548.377014134625,1492.488354101236
17650.819936149932,1528.9363589839256
17767.268629860064,1565.7022664536362
17884.49295933747,1601.9344242302031
17986.69848929256,1636.7961533728967
18061.234744533835,1669.6355014438236
18104.435700229307,1700.0977868804966
18125.476560237672,1728.122484147021
18146.426655521067,1753.7940985815228
18197.6452136742,1777.0608177462216
18309.07800161333,1797.382990537927
18499.46378493968,1813.4109945488935
18766.481098620483,1822.805352538201
19081.07118120808,1822.2933917775592
19388.39348580774,1808.0074076341702
19616.23306925172,1776.0795956202865
19689.596075675014,1723.3964187453116
19548.292214314148,1648.3595847823167
19163.11156940531,1551.4793640770172
18546.17752421039,1435.6473812988925
17752.29469102923,1305.99788608196
16870.331944587415,1169.3553049921663
16006.296232397326,1033.3600862366945
15262.027523731444,905.4405670017368
14714.711510191504,791.8359897369417
14402.276090597976,696.8646214838301
14318.218691795995,622.5735068777836
14416.919208872734,568.8171411142387
14627.729221359374,533.714022578848
14873.87344313547,514.3475640969123
15091.08260562555,507.5316024694958
15241.188631319035,510.46117605048136
15317.523999349416,521.1141729066167
15341.376276451168,538.3450200311984
15351.239183564228,561.6963329343115
15388.4608657253,591.025450650384
15483.62015304109,626.0819966175061
15647.41734807154,666.1716323729751
15868.281457705927,710.0031432822652
16116.795763185792,755.7541334447509
16355.072145624636,801.3239653107091
16547.92698714864,844.6903243929493
16672.450622214168,884.2617155262077
16723.319539664786,919.1270719382695
16712.67477760091,949.1403830994486
16665.090025576195,974.8299551857118
16609.556462089186,997.1722540012682
16571.123402764806,1017.3044838968655
16564.69544906439,1036.2592844253918
16592.606433802986,1054.78854583324
16646.291524082262,1073.3085925058174
16711.088322492247,1091.958226399129
16772.31025657368,1110.7276692289088
16820.49681323357,1129.6002846399047
16854.186456967953,1148.6537834287208
16879.499528655702,1168.0899651931868
16906.93447395082,1188.19286223379
16946.70585470326,1209.2430369098956
17004.396424322862,1231.4309686744864
17078.527178918954,1254.8100703081411
17160.93769344111,1279.3114496185663
17239.855798975717,1304.8154022251224
17304.55945116642,1331.2492251219562
17349.923979231367,1358.6671334102266
17379.11944013892,1387.2715821695394
17403.304929490063,1417.35562074956
17438.187352897832,1449.1762488410088
17498.445416205373,1482.7982235870777
17591.883629892647,1517.9651013175117
17715.45988579445,1554.0517912326882
17854.881116011184,1590.1294040554878
17988.374905449018,1625.134975350802
18093.8317518116,1658.0978355297962
18157.22050583077,1688.3452359328928
18179.456235164016,1715.604057057646
18179.046806972696,1739.9380749976935
18188.90516957508,1761.5074384445315
18247.436628484083,1780.1963024241204
18385.90318881033,1795.2082922291047
18615.5383083767,1804.7598172908722
18918.423864074128,1805.9958417626497
19245.48695224303,1795.208885936901
19523.220854904856,1768.3684379540505
19668.32613320534,1721.8828511024467
19607.08397105021,1653.442329295452
19294.63331443749,1562.7513594641493
18728.96394368097,1451.965660365513
17955.54115849433,1325.70388261864
17060.797207965406,1190.5961618849503
16155.64149836582,1054.4379087504926
15352.83909054212,925.1108904635146
14743.81080679316,809.4902558219029
14380.614756737265,712.5605167096224
14267.506729164052,636.9140494674172
14363.924128606775,582.7149748501859
14597.716986437168,548.1026645899769
14884.81100533808,529.9104162577885
15149.960516945814,524.5107809240225
15343.229367136357,528.584682950388
15448.27926088479,539.6483601996356
15480.986130084297,556.2481987864112
15479.615906279998,577.8267553170424
15489.997103541593,604.3480904804644
15550.235851329922,635.8249671571361
15679.28256843682,671.9019188017354
15872.230631041915,711.6165672301448
16103.09176089668,753.398647141952
16333.607665616451,795.2917396493733
16525.050876271485,835.3184795990611
16649.3577257723,871.8734510051188
16696.423946843694,904.0275728047435
16675.755115752767,931.6610347968781
16612.440981739666,955.3967397237262
16539.06860276453,976.3652179003473
16486.23725379332,995.87754996127
16474.529009691712,1015.1025496768599
16510.13145123466,1034.834423434404
16585.057703399547,1055.4025923090255
16681.474032397862,1076.7286033995108
16778.462101381738,1098.491193984897
16858.94519145143,1120.3327852783718
16914.635658582487,1142.0362557337046
16947.632630785956,1163.6192430652218
16968.444537025425,1185.3267170872984
16991.361692252518,1207.539082284369
17028.90479993425,1230.6403151119475
17087.28852930933,1254.900109707744
17164.41795966607,1280.4136084689792
17251.027176975327,1307.1168000256675
17334.475340576915,1334.8648640434126
17403.794595136045,1363.5359667333248
17454.141284792728,1393.1132188217568
17488.99134887434,1423.7061916273992
17519.192683660236,1455.4973657303797
17559.097264775046,1488.62937661936
17621.076919276544,1523.074546676748
17710.40324548218,1558.5389488091496
17822.484794580512,1594.4441014873023
17943.75293302809,1630.0022985456512
18056.26150648486,1664.365157307444
18144.697996095787,1696.7919206946008
18203.458175278432,1726.766997904951
18241.10512030075,1754.0033666425954
18280.1022616928,1778.300393228882
18351.07702907709,1799.2735262039341
18482.658239687826,1816.024785956176
18689.583486030755,1826.8601709502927
18962.7337210467,1829.1689632267507
19264.63923721997,1819.553843126499
19532.747476676857,1794.2432736936037
19690.64170699938,1749.7422378212552
19665.035069609003,1683.604148558676
19404.444891716736,1595.1567605125488
18894.593562076047,1486.0043349109972
18166.11051550562,1360.1633234545088
17291.945231290665,1223.7633285546403
16374.565734204349,1084.341814702594
15525.767299661298,949.8559315272026
14843.961282553117,827.603405483577
14394.554466119978,723.2685738534417
14198.240143719817,640.2824047250037
14229.920405482604,579.6132217381937
14428.1651372787,540.0059579736377
14712.384298998506,518.5870608529167
15003.0057546127,511.6747781471978
15239.409740010531,515.5990911955186
15391.27122007633,527.3493370580284
15460.986375746454,544.9249271533647
15477.387233597075,567.3487967948795
15483.24716093906,594.3913155070472
15520.526512022954,626.1214452390874
15617.561862317303,662.4352258100128
15781.485827305218,702.7028284414617
15997.428794242096,745.6296411512152
16234.05242671935,789.3588911677613
16453.27706271564,831.772994248261
16621.12829847496,870.8973879148039
16716.626206469617,905.2875061110497
16736.47839674178,934.291106925864
16694.69742719643,958.1189071720083
16617.7174434954,977.7132317307398
16536.731085781386,994.4603574040693
16479.53269555048,1009.8318789372241
16464.053533375816,1025.0537174486387
16495.1106327765,1040.8862984590028
16564.89903437659,1057.5620375939436
16656.728547082057,1074.8786265071155
16750.706240254585,1092.4029601106292
16829.673246645758,1109.713167155509
16883.779354481772,1126.6019817932954
16912.563921131572,1143.1833859351482
16924.15754327354,1159.8791042732848
16932.024618021907,1177.3008059593742
16950.327226314745,1196.0755692031648
16989.339366077642,1216.6769273412815
17052.290133659662,1239.3178181249043
17134.57473911849,1263.9377417187125
17225.556687431068,1290.2827077705422
17312.385345241473,1318.0443315918492
17384.601568540373,1347.004303330888
17438.005462141446,1377.1290104023465
17476.43247143108,1408.576862145677
17510.709942902653,1441.612043380681
17554.98281986734,1476.4526380292477
17621.52912576124,1513.1066198287967
17715.821851217024,1551.256854463074
17833.685895907114,1590.242322702216
17961.853574238005,1629.1506450757438
18082.15338410749,1666.9964112704602
18178.28052827273,1702.9241179067712
18243.012727540012,1736.356510546372
18283.251587533803,1767.0169156657996
18320.63116230798,1794.7881430139864
18386.625682625985,1819.4226709395618
18512.809471777,1840.1743790424005
18718.662684815,1855.4637244755102
19000.502663064133,1862.7011486406655
19325.299837159,1858.3700957919614
19632.14003159705,1838.413930872066
19842.116117456542,1798.8930761929037
19874.99750920349,1736.7998875790213
19668.8494469826,1650.8611311299378
19197.542318912343,1542.1391256093773
18481.245457542544,1414.2708712464728
17586.58253210822,1273.2556238693817
16615.747381215187,1126.7994236455838
15686.820533717208,983.3261789843533
14909.946906403238,850.8434982705917
14365.2247087809,735.8872045773576
14087.754861413312,642.7517646252085
14063.408709065036,573.1485611610292
14236.027855561166,526.3363729283132
14523.78268490012,499.6630704166122
14840.126345226505,489.3704688809122
15113.810591121612,491.46630724897443
15303.00294959832,502.46863298383386
15400.433174204622,519.8756895995257
15429.104771910426,542.2941748265474
15430.661223912468,569.2484566540147
15450.28275744571,600.7696780973004
15522.560822355375,636.908219338323
15662.08757266704,677.3167612071254
15860.81544538594,721.0165049328727
16092.151982368265,766.3981521016772
16319.8903104304,811.4402146691183
16508.944861878594,854.0689929326081
16634.709505372222,892.5516364390569
16688.615844050943,925.8126899303293
16678.81864574469,953.5929920681589
16626.415408678015,976.4176669515558
16558.778860487357,995.3928438150842
16502.152527594248,1011.8941651605504
16475.553525112788,1027.2333602463248
16487.374821575988,1042.3877106304515
16535.150644028057,1057.8535675462101
16608.048586812925,1073.6473040923147
16691.023640277985,1089.436337639445
16769.332881243176,1104.7501338490392
16832.249707000734,1119.204400605496
16875.216094442694,1132.674171272407
16900.17040977968,1145.3710748525032
16914.242409411556,1157.81038165446
16927.326308632786,1170.6856042995114
16949.199119604902,1184.6937556019277
16986.8641051849,1200.366309479468
17042.7028906984,1217.956787491311
17113.844700478312,1237.417369242517
17192.922202520876,1258.4694744454212
17270.09473524266,1280.7446891801399
17335.910626707406,1303.950789528154
17384.31024420488,1328.0091846414389
17414.92498700755,1353.1175459050285
17433.88878630443,1379.7130175814827
17452.691908199762,1408.3414268918182
17485.139044307318,1439.4678316696727
17543.101001652012,1473.2845817310865
17632.277806246166,1509.5778873648885
17749.413705155683,1547.699950238245
17882.17664624443,1586.6636486295454
18012.22300914773,1625.3383011533394
18120.96328052137,1662.6891902074833
18196.516982581637,1697.9817091074235
18239.64768481008,1730.8716215725462
18266.399601562287,1761.328588418065
18305.845982249462,1789.3861939372646
18392.697472796863,1814.7669118661788
18556.16088776325,1836.479461069378
18807.89025827046,1852.513511366239
19132.634320749214,1859.751904503293
19484.92214143322,1854.1807404042872
19793.797375984595,1831.4098022935518
19975.503107125627,1787.4354122660277
19951.69938090943,1719.505444896196
19668.948272869733,1626.9020379923916
19114.421501790228,1511.4556975282267
18323.38696162896,1377.6488669900787
17375.930162568264,1232.249484706026
16383.088226992537,1083.5169826449155
15465.374727954191,940.1200109229972
14728.758965576775,809.9726750022968
14243.921107730346,699.2168078714121
14033.79986371589,611.5458946041651
14072.292675512395,547.9891644744378
14294.061507102506,507.1710091519959
14612.5545817319,485.9567955347693
14941.361958918562,480.31672382323615
15213.409028226572,486.2032936267085
15393.377761303487,500.2523399613249
15480.821439798005,520.1765450088974
15504.069706424523,544.8067252178898
15507.4461409508,573.8266705690276
15535.879461315595,607.3186459667772
15621.30907924554,645.2719021350625
15774.371367493071,687.1992035643638
15983.061131655484,731.9616270362687
16217.971837191211,777.834481632827
16441.943098277163,822.7769659720946
16620.95421402581,864.8142911669288
16733.09892300418,902.4168136747016
16773.35806636183,934.7704900550342
16753.310469291417,961.8712668873388
16696.426660302015,984.4299266531035
16630.742243131976,1003.6271098387635
16581.224281497674,1020.7958332466775
16563.954773572957,1037.121458714131
16583.497217802615,1053.4351720811628
16633.76515395811,1070.1427607589796
16701.700623079487,1087.2874050841701
16772.370432744152,1104.7066123789812
16833.854331701554,1122.2203400023518
16880.541767758616,1139.7854262751964
16914.054609431005,1157.5696124802005
16941.77170846113,1175.9296181300056
16973.62943068449,1195.3112883771682
17018.327016364467,1216.1149784988656
17080.17282687751,1238.5784534832087
17157.556246094937,1262.720444813475
17243.503044045057,1288.3643341216882
17328.11897091218,1315.2315513773128
17402.129415062507,1343.068403236491
17460.35254604367,1371.7570117445605
17503.915843977997,1401.3654369587925
17540.36917786162,1432.1127140925066
17581.485057062244,1464.2548120690085
17639.297432903353,1497.927314343266
17721.587120975157,1532.9995539995896
17828.352053359587,1568.9957238073835
17950.656602473206,1605.1194853371776
18072.62109900009,1640.3846807795267
18176.333252318866,1673.81612234166
18248.413913738183,1704.65375233136
18286.190121839143,1732.4819530786197
18301.217582109468,1757.2195325125424
18318.405647179126,1778.943519968881
18370.166599488573,1797.5722663965607
18486.548878708792,1812.4857613615434
18683.77296726372,1822.1972808962198
18954.48971139685,1824.1973924618223
19263.06574652586,1815.063287516633
19548.16267825948,1790.8674149291323
19733.020397076325,1747.8428054180752
19741.662513032134,1683.187872451998
19517.345054957845,1595.841501436454
19038.563134650125,1487.045889636178
18328.18390780664,1360.5464518973426
17452.80263460258,1222.3499713275523
16511.855373690927,1080.057917608128
15618.711377339065,941.8883060017351
14878.153099307754,815.5724010588226
14365.693482104316,707.3431594477433
14113.761429729622,621.2122811985486
14108.005319745767,558.6667343899163
14294.314712781344,518.8200734942716
14594.386194234889,498.9527130300345
14925.534798771325,495.29361611472757
15219.554408343603,503.8531993224557
15435.971135528456,521.1226658496371
15566.807741124658,544.5047752679279
15632.433869040397,572.42018998124
15670.494502260555,604.1199841260999
15721.611852569164,639.3058329066951
15816.110523338852,677.697367657284
15965.34438697645,718.6835837381798
16159.585787114698,761.1558514974038
16372.405797961426,803.5575978557642
16569.64124661929,844.1191492867778
16719.917640888332,881.1944382716733
16803.539740025386,913.5926928904785
16817.333252376193,940.8073424791157
16774.41660617353,963.0810166468782
16699.440976917012,981.2969657029299
16621.09364945964,996.7373724417452
16564.277898698583,1010.783279169678
16544.24093677681,1024.6403757884068
16564.130642023985,1039.1588403536305
16616.310655439178,1054.7806972221006
16686.620167205896,1071.606840750668
16759.96395905754,1089.5412130345435
16825.368240029962,1108.4518762771704
16878.970604598024,1128.292111476033
16924.188064071233,1149.1463965073933
16969.26512038705,1171.197576368425
17023.243468389417,1194.6414070739377
17091.865602428097,1219.592688917558
17174.89328439916,1246.0276074439453
17265.80760123169,1273.7901494221937
17354.027220771266,1302.6630356505366
17428.898045872596,1332.47572484361
17484.054703836104,1363.2041224227432
17520.551759047048,1395.0157086356835
17547.497416159265,1428.2310032007417
17579.7150889857,1463.2022464229108
17632.976478229026,1500.142665355244
17718.27046029188,1538.9629262528676
17837.076723928476,1579.1760188506871
17979.49039677711,1619.9143668201311
18126.268979046246,1660.067343145983
18254.634379031515,1698.504187811692
18346.32439558759,1734.3108114227111
18395.386877203917,1766.9525480150141
18412.922056141822,1796.2867084752522
18426.587958532364,1822.3884632798106
18474.1003888051,1845.2117332656144
18591.81835988455,1864.1670453173867
18801.2596632039,1877.7419488781425
19097.465431752084,1883.3009942942492
19443.11064737422,1877.174056993844
19771.02925787658,1855.0776752335125
19995.64693732977,1812.8286594486283
20031.26801915292,1747.2245476153396
19812.98437980452,1656.9051029925379
19314.843957665515,1542.9914832064314
18560.243502142333,1409.332868247458
17621.287806773966,1262.2687923326623
16606.64588009362,1109.9213131790282
15640.473588151755,961.1385817230978
14837.401446641976,824.2932088563784
14279.70083420341,706.1739573454762
14002.203768906016,611.18838889204
13988.50337144724,541.0222141400857
14178.980761806386,494.7963491422552
14488.13348993413,469.65143517796645
14826.379329562968,461.59939753268145
15120.597235216745,466.4340093853694
15328.348436911629,480.4973260042476
15442.73454842451,501.152358142519
15487.564788208054,526.8982309579565
15505.11948339388,557.1585463829495
15540.584422541542,591.8520348617699
15627.746239073062,630.8978308718056
15779.735517406809,673.8072641947458
15986.818643016331,719.4734969513012
16221.065021460689,766.2036804942785
16445.808555038424,811.9655927441607
16626.6999571967,854.7621635915348
16741.05091012437,893.017773804386
16783.021362955504,925.865526466647
16763.651054774276,953.2605993120042
16706.302942517126,975.8988732709573
16639.308478735573,994.9757223502195
16588.175331392657,1011.8613330836206
16569.55495401298,1027.7855439865082
16588.408252997575,1043.6141172858197
16638.741764729362,1059.764838173048
16707.251218560454,1076.26721654634
16778.48636663716,1092.9276195695509
16839.897474058398,1109.5344888973273
16885.348029074292,1126.0329040299061
16916.259960702107,1142.6142987973662
16940.301086501695,1159.6992282659849
16968.219376141617,1177.8279734720481
17009.902100872227,1197.5037466320393
17070.8912643589,1219.0471840703992
17150.40364790492,1242.514812549616
17241.445199838665,1267.710686044808
17332.99648987404,1294.287316208332
17413.632922541845,1321.9002405164765
17475.48925142183,1350.36056793505
17517.312214179074,1379.7284249110578
17545.536309563362,1410.308350355268
17572.846688982954,1442.5400212019324
17614.44347447602,1476.8140897480032
17682.994572543856,1513.2714529884731
17783.822417238385,1551.6549295377868
17912.00499850731,1591.2702477274438
18052.674421352323,1631.0806301131142
18184.9128525711,1669.9150804946594
18288.48969250472,1706.728192351578
18351.59356331148,1740.822947621958
18377.060286677784,1771.9478649368798
18384.66856686302,1800.2090348376505
18407.95795580594,1825.7902689916136
18485.55249996013,1848.5371720367516
18648.746267629107,1867.5153830040492
18908.58619594981,1880.6820943025948
19246.361111209542,1884.8016371500555
19610.95669194629,1875.6885582944801
19924.968932456988,1848.7844202220335
20099.14112405955,1799.9860511290246
20052.233224372347,1726.5663831841912
19731.577800423183,1627.9860744681873
19128.93001175196,1506.3988757547397
18287.06451657314,1366.7082538869975
17294.762111109918,1216.1260279804133
16270.8039384888,1063.293888320538
15340.530409204322,917.1285803188797
14610.58338999469,785.6160275600819
14148.019662815192,674.7921302311031
13968.874675409215,588.1049455756771
14038.765020333254,526.2651386214909
14284.94738488878,487.58104623665236
14616.297779590435,468.66897892515703
14945.762900838416,465.3542366795631
15209.474638964026,473.55096046309546
15377.95653839401,489.9337948124419
15457.27096382012,512.2822761589971
15480.81600715285,539.4701578922193
15494.94647701498,571.1618864257258
15542.988053542496,607.3443484500034
15652.214640511398,647.8488098390858
15827.07200835098,692.0019764034711
16049.83196975094,738.4942171140667
16287.629342750855,785.4837538154233
16503.13087427809,830.8881587438399
16665.357998878266,872.7667796030928
16757.54793311388,909.6808237478647
16780.167344473633,940.9335202455652
16748.82814526586,966.633732194705
16688.362119972113,987.5790328549409
16625.255076281424,1005.0030317728466
16580.809925890117,1020.2635881285859
16566.85204091993,1034.5563252785769
16584.776128744434,1048.7217639748076
16627.633684799617,1063.1812469842241
16684.120630148496,1077.9975675364183
16742.96137326532,1093.0224406314585
16796.333308656478,1108.0736275404154
16841.504433915237,1123.0836776285473
16880.53940848569,1138.1783102128688
16918.530752498264,1153.6691653406886
16961.164253864226,1169.9742329869132
17012.476216553823,1187.501123039383
17073.451664627108,1206.537459836717
17141.763875502038,1227.1871942431746
17212.595835866978,1249.3740410034475
17280.21073318251,1272.9095250401667
17339.795654013815,1297.6007915083774
17389.084915751206,1323.3593021394106
17429.346025181443,1350.270114833762
17465.450149444776,1378.5931471385352
17504.931455860074,1408.6892543854415
17556.15635713259,1440.8887253612854
17625.95904575875,1475.3403222862885
17717.314037424112,1511.8886219026415
17827.742686324847,1550.0224125779034
17949.110856343825,1588.917682552962
18069.2153177688,1627.570016753466
18175.08553917034,1664.9809828347388
18257.340109967747,1700.3405210858732
18314.40564189372,1733.1402933830882
18355.135517688992,1763.1654632047396
18398.522171687087,1790.3432062875415
18469.833011624843,1814.468589338747
18593.509921410638,1834.8713306011207
18784.29437204856,1850.1179262170353
19038.921840341824,1857.8521708281787
19331.034646635115,1854.85782333781
19611.49148738477,1837.3818585171289
19815.0302002363,1801.6946052358956
19872.54144828449,1744.798877670884
19726.49777392809,1665.1507332362842
19345.877167703045,1563.2340873475468
18736.64198118704,1441.847896574807
17944.65448553436,1306.016683664343
17049.67931199813,1162.5121499807701
16151.392278654495,1019.0577802205053
15350.456612938331,883.3592800519793
14729.12157805785,762.1435979522681
14336.019678913372,660.3877658663232
14178.794195028271,580.8757785595778
14226.154512609084,524.1476804681799
14418.500466597336,488.8182870534242
14684.071096943342,472.16495230678436
14956.267916171537,470.8333320486868
15187.724555662233,481.4984799107464
15357.827638758525,501.3467701564218
15472.371186043849,528.3026469914313
15556.25038424828,560.996154836729
15641.925435264966,598.5330771753114
15757.314912898648,640.1725554519509
15916.601074059983,685.0277484059964
16116.273945210009,731.8833527972483
16337.013374175767,779.1784814313127
16550.256918695264,825.1492027953731
16727.042776976978,868.0780278987542
16846.283086044994,906.5704680864949
16900.07279211337,939.7773929026769
16894.762043166967,967.5042098871402
16847.91798877866,990.1850281479536
16782.526056462546,1008.7395217524024
16720.47220086671,1024.3601870842638
16677.34092858281,1038.2901590444237
16659.923681042936,1051.6449471521462
16666.815698586895,1065.3097975918276
16691.44238848312,1079.9165578080601
16726.133938359013,1095.8796794097843
16765.669799289855,1113.457888829829
16809.069129644613,1132.8090613926468
16859.15403226614,1154.0186957836893
16920.279871530525,1177.100771189733
16995.308348815994,1201.9857936385963
17083.16069067579,1228.5180262815998
17178.048199428664,1256.4795487444276
17270.825042150136,1285.6449180568284
17352.075280956604,1315.852742975122
17415.829849321282,1347.0670392900875
17462.472258194874,1379.3981707790667
17499.573990738936,1413.0630906870742
17540.066875147004,1448.2850671619115
17598.104161687526,1485.1572392376702
17683.868719671846,1523.5131264452723
17799.130082843665,1562.852503711986
17935.305742050656,1602.35882225899
18075.103278881725,1641.0165339320567
18197.678470112613,1677.801095323448
18285.98367342909,1711.8827148948812
18334.018113892387,1742.7688625475919
18351.3865390526,1770.3181512793365
18363.102856767026,1794.5904479506355
18403.860709774828,1815.5479533050484
18507.698990268946,1832.6758568216153
18695.613153585877,1844.6324026489751
18964.6765190863,1849.0521469935034
19282.25732404449,1842.6048931925022
19587.842036171285,1821.3580645896322
19803.03016903277,1781.4140112890261
19847.963168771614,1719.7152533552835
19660.449057649468,1634.8516081218906
19212.95846365574,1527.6814931671743
18522.873010925137,1401.604345454638
17652.878406432086,1262.3888731738343
16700.843235979035,1117.557759448589
15781.253961295277,975.4302463755463
15002.529038671208,844.0043320403742
14445.668478504384,729.8993207775543
14149.38098202356,637.5667026905527
14105.146658604186,568.9156060971891
14263.086040931224,523.4038165381314
14546.734961775282,498.5406046264009
14872.631162276915,490.65952622130254
15169.586744613633,495.76932491001594
15392.893743968503,510.29006790753675
15530.32975274255,531.5276101450177
15599.195296299831,557.8181973999469
15636.037622558462,588.3643420343427
15682.527036374284,622.8591969314523
15771.69084546813,661.0404863592919
15918.24325329011,702.3173489874342
16115.290954580172,745.5767340040157
16337.722076942924,789.2132861169334
16550.69016474218,831.3572940465998
16720.310778149997,870.219154618231
16823.31310804143,904.4407429195535
16852.96594304218,933.3499212479076
16819.88829833747,957.049895331749
16747.936679457285,976.3276944087594
16666.760189692126,992.4190505415506
16603.445212494655,1006.7047392761416
16575.737192547516,1020.4259640473837
16588.664234179643,1034.4918239090857
16635.238337578347,1049.4168134511335
16700.64223809655,1065.383027120259
16768.3028167083,1082.3843539076138
16825.78955765681,1100.389773810133
16868.669656000387,1119.4650554728364
16901.212762767536,1139.8143492139461
16933.91456106988,1161.7366047022963
16978.857517651835,1185.5243531930316
17044.62060179415,1211.3529058070653
17132.571930739974,1239.2096789548905
17235.89087379795,1268.896108113946
17341.721929623815,1300.1050137843888
17435.764827266317,1332.5452314224497
17507.714348892318,1366.0642859677669
17555.58660621452,1400.7169639049848
17587.257429123747,1436.7446177393033
17618.43165779332,1474.4616481581857
17667.49150941189,1514.0810623439127
17748.83777888165,1555.537530797627
17867.031033211,1598.3735463896528
18013.980601031308,1641.7378290030806
18170.56930526344,1684.5087199380819
18312.662557532647,1725.5099789336766
18419.87096250415,1763.747253160061
18484.244788809112,1798.5749903388505
18515.72484893452,1829.7146228848187
18541.86720176877,1857.0853817085151
18600.97816743689,1880.4692834068796
18729.90054422892,1899.094405308718
18949.63907276353,1911.2656491553723
19253.152591455862,1914.1833404627384
19599.525519314037,1904.0595671085302
19917.280751918468,1876.5743489380698
20117.14635092009,1827.6243103862705
20111.815523710586,1754.2289811300702
19837.96631450447,1655.3990367600613
19274.75439344332,1532.7558533462384
18453.54681186497,1390.7303059042556
17455.74652340003,1236.2541360158102
16398.625566818046,1077.969724486841
15412.28642622546,925.0958824951285
14613.292397962225,786.1697157158856
14081.448481419206,667.9161171416179
13845.394704341108,574.4683587794374
13880.327939590556,507.08235021664166
14117.96486296182,464.3738519427712
14465.704353481902,442.9909014953933
14829.715761734184,438.5420715351718
15135.955709244166,446.5568533101111
15344.03679414421,463.2665055362564
15451.101046099142,486.05628556645286
15485.699310597642,513.5343986331405
15494.318550108292,545.2632002956968
15524.916011403708,581.2780093652716
15612.205243285996,621.5590901543743
15768.493309746416,665.6154288372389
15981.966958140312,712.29044631651
16222.082648590893,759.8261536902484
16449.788872967078,806.1455152465685
16629.20719996525,849.2542131241315
16737.348304137933,887.6372725340818
16769.348884926545,920.5375276405563
16738.23148242306,948.0453342639886
16669.824382734227,970.9876929385376
16594.762410211406,990.661962605162
16540.099546043537,1008.4984677590361
16522.901240722098,1025.7478053373636
16547.374466787398,1043.2715999551733
16605.93001146406,1061.477319611785
16683.415210334333,1080.3916496960685
16762.929402642574,1099.8272654205234
16831.33958577747,1119.57599756501
16882.88620942756,1139.5624134047357
16919.98515224561,1159.9133751164668
16951.25445159029,1180.9326177384469
16987.644549677414,1203.0030683658906
17038.08480681788,1226.462480328325
17106.135095743943,1251.5031395115682
17188.741683974557,1278.1332656735606
17277.469556260243,1306.211780664227
17361.745818326013,1335.5389807127347
17432.962154703666,1365.963786619434
17487.969154336366,1397.4614104245238
17530.66403289254,1430.14592902481
17570.990483956943,1464.2067145599663
17621.55398592626,1499.7873134439358
17692.928389600856,1536.8494803592384
17789.293364248315,1575.0744839659085
17906.079256023997,1613.8440801438146
18030.7445132093,1652.3167672688305
18146.80209972115,1689.5793271458165
18240.04362004569,1724.8212042433227
18304.9667799508,1757.461953152258
18349.04207634749,1787.1677297192741
18392.852318266192,1813.722566367555
18465.261461522256,1836.7670100885139
18594.3295393916,1855.4673194932784
18796.22416692225,1868.2168497272432
19065.382694469863,1872.4836439648097
19369.26969041197,1864.8973264282597
19650.125189421524,1841.6162519218858
19834.302022575223,1798.9441188879323
19847.62067124565,1734.0923221685073
19633.256753970705,1645.9305694329544
19167.61549592012,1535.5502725341096
18469.81513604347,1406.4907624821285
17601.82444315269,1264.5438385469256
16658.631442514343,1117.142931905041
15750.430527195338,972.4371966775698
14980.96901053393,838.2244185081448
14427.27151046531,720.9507397534838
14125.641511206642,624.9707408343248
14067.203972394354,552.2017614338263
14203.756686203516,502.2165028606838
14462.04307901322,472.72055982803005
14762.480877264554,460.2807773823501
15037.437215059994,461.1255333778919
15244.551730636902,471.8386507242857
15372.204336333729,489.81200873151755
15436.504684859112,513.39447358345
15471.476361573095,541.7560748256009
15515.781774178718,574.5549315883368
15599.95905166229,611.5335678054778
15737.620336606997,652.1732470625296
15922.62576893021,695.5026296050919
16132.377852850896,740.1022687774757
16335.64376122972,784.2862039106483
16502.19237894495,826.3931792685842
16611.29448103926,865.0951129444849
16656.76603864339,899.6338697029321
16647.4711914215,929.9252976998929
16603.62479510743,956.5114925446903
16550.409713185858,980.3850421998156
16511.029980641844,1002.7404635412157
16501.236124968287,1024.7206358058
16526.680161652894,1047.218541488726
16583.451960403134,1070.7717821168121
16661.156389584223,1095.5577504212097
16747.215832454873,1121.4704278697639
16830.900331287485,1148.2427985533382
16905.901920869608,1175.5749840638894
16970.924940194032,1203.2360499198562
17028.50787531661,1231.1222381503637
17082.86508289869,1259.2700472292715
17137.75826424084,1287.833966594254
17195.231466977068,1317.0432366674777
17255.56919584679,1347.1503050441916
17318.26481053142,1378.3786172127343
17383.34441729431,1410.8727434787133
17452.252667470762,1444.6523679002228
17527.72503118285,1479.5739234008943
17612.560003421542,1515.3078154368275
17707.767878071252,1551.3418711234426
17810.974061976354,1587.0196102840525
17916.007447362543,1621.6136892164375
18014.245372786238,1654.421828543489
18097.611531297025,1684.8589440263822
18162.363316627667,1712.5108452509587
18212.253412706898,1737.1169667889105
18259.557386530265,1758.4645475055734
18322.935149474637,1776.2025478982343
18422.052934458738,1789.6140182917525
18570.059863678587,1797.4112646381095
18766.00386822538,1797.6294514670326
18989.71302151366,1787.684668925275
19201.33164213417,1764.6310072155911
19346.594427390683,1725.603542934884
19367.31392113856,1668.3817934199485
19214.907250837176,1591.9654484591888
18863.615795958303,1497.0341944604465
18319.787343059805,1386.1741806408024
17624.35675093407,1263.7951825939554
16847.32322396271,1135.7263218017065
16075.137257663191,1008.5491979231318
15393.873250033295,888.7876623783015
14872.289350429595,782.1075162326551
14548.982167770067,692.6779877212107
14426.775661176349,622.8099404981859
14475.53782823717,572.922657839001
14642.357550339711,541.8177860597036
14866.093492408529,527.1740347174963
15092.276742666314,526.1353369767113
15284.48456030614,535.8573799932426
15429.524817033938,553.902727682931
15535.677916909455,578.4245446529317
15625.24317907386,608.1386626090432
15724.13626833639,642.1372321299285
15851.870894850674,679.6311245638633
16014.820146999316,719.7154972935284
16204.3981123675,761.2341371196709
16400.175080621106,802.7809116007768
16576.46550123343,842.8327279597263
16710.04402513012,879.9703228733514
16786.566198529534,913.1206622064103
16803.939125475554,941.7522159509948
16772.01440672271,965.9705336707071
16709.15464228889,986.4901919752365
16637.07663078898,1004.4915400224625
16575.669265237113,1021.3980369429046
16539.204031022327,1038.6260361380146
16534.677466704008,1057.3609953423702
16562.23641092841,1078.4034565635438
16617.02434799589,1102.1088228747303
16691.532126449205,1128.422436999396
16777.661460133528,1156.9910684876543
16868.08972183903,1187.3176551777335
16956.95261995148,1218.9201493487944
17040.14159123347,1251.4578354256628
17115.54161937528,1284.798247942007
17183.338432995435,1319.012536625158
17246.237539266283,1354.3039170451361
17309.24031356773,1390.889557936121
17378.651524235076,1428.8677666499864
17460.275429145207,1468.106942098093
17557.19082265628,1508.1887445444552
17667.88138218875,1548.4251658056162
17785.627475647485,1587.9496558129074
17899.81024174492,1625.8603243351229
17999.1606015676,1661.3742187957973
18076.18943233136,1693.9418009432163
18131.35448706165,1723.2745755477326
18175.253955418146,1749.2577629099424
18227.471565332944,1771.751090782105
18311.61838741513,1790.317127682017
18447.38451931932,1803.9481821089796
18641.62970813925,1810.8794599029445
18881.269411988986,1808.5704791225685
19130.63062738631,1793.9066868768384
19334.97870720797,1763.6235966829083
19430.26281562544,1714.897631032064
19357.251214983145,1645.9960724220578
19076.701633509085,1556.8478756892418
18581.5446649544,1449.3980289603148
17902.524271557995,1327.6434415747487
17105.277109845916,1197.3116777038947
16279.04524304633,1065.2209776393813
15519.483519445645,938.4321531747572
14909.68211513511,823.3517746848637
14504.07809358481,724.9586944113787
14319.198043977252,646.2985883537872
14333.35632280122,588.3303838891354
14495.048642985428,550.1293913826801
14737.513433908643,529.3745165449453
14995.423934442108,522.9902100435775
15219.329595069476,527.7910846596476
15384.342651926188,540.992400134277
15491.363139546716,560.4968179208648
15561.295554731723,584.9328440635181
15624.59506152922,613.4852085356824
15709.56669020811,645.6052707162025
15832.868396518395,680.7092923924009
15994.70702125246,717.9613570514144
16179.621694799624,756.2016608760667
16362.040670542288,794.0319897481728
16514.487957631154,830.0230103260105
16615.75741165383,862.9753130702591
16656.66035012621,892.1555070552921
16641.91971465807,917.4407947264116
16588.06982353596,939.3346963701856
16518.403511835084,958.853178895631
16456.739942357373,977.313682442529
16421.895021704644,996.0809318092811
16424.26457435504,1016.3287683817103
16465.09908631997,1038.8672442582567
16538.167794414298,1064.0635867472304
16632.866837126214,1091.8611413544822
16737.59405614885,1121.8786498080717
16842.403069124153,1153.557879179565
16940.426204699044,1186.3225244876867
17028.101127670914,1219.7146252156656
17104.635594197036,1253.4838915003047
17171.268995180977,1287.6172389459741
17230.734154446374,1322.3078908127518
17287.00149565726,1357.873998994699
17345.07709129907,1394.6450790974357
17410.48912061442,1432.840210173605
17488.213093009705,1472.4643143244684
17581.11420727912,1513.2469792223624
17688.3780690563,1554.6413039003862
17804.662371897823,1595.887957760323
17920.6691517899,1636.133371099088
18025.453957504003,1674.5739241651615
18110.143832017355,1710.5848841486954
18172.04683866108,1743.7887087609033
18217.676564116664,1774.0258721275559
18263.217645181296,1801.213183364957
18331.51728735281,1825.1061747874146
18445.70466623167,1845.0161340312354
18620.73335678875,1859.558986703499
18855.12363981742,1866.5230447876415
19125.58163335037,1862.9294848866293
19386.76787618447,1845.322948964134
19577.29763155292,1810.2762852502453
19631.357306958467,1755.0354043475586
19493.58931586056,1678.1827212341352
19133.66295374653,1580.1747999801532
18556.63584935121,1463.6204755409851
17805.99317885094,1333.2104994385645
16957.981844523154,1195.2801223696715
16108.090549526058,1057.066021566865
15352.64423879839,925.7890928442448
14769.8710350704,807.7369087121117
14405.041253822495,707.5226207279292
14263.27567884946,627.6590609958289
14311.638304468028,568.5165692489093
14489.717703337155,528.6477770246506
14725.73584548487,505.38324811079684
14953.903465687386,495.54787956767035
15128.61528692944,496.1319319508254
15232.14530743747,504.77510874019003
15274.420069826523,519.9793778244455
15285.643358212925,541.0402074035761
15304.392327663356,567.7569012488611
15364.807342320484,600.0327811776384
15486.430351715217,637.493497797006
15669.20462387595,679.2343733060754
15894.499863133242,723.7623916485397
16131.285550944162,769.1392507473861
16345.240982719748,813.275606209293
16508.00210913102,854.2881945078896
16603.997357770968,890.8200108756484
16633.260278356232,922.2402618547993
16609.88962271611,948.6787964266235
16557.05719481013,970.8971167538364
16500.30039177701,990.0411392461568
16461.091660023623,1007.3480980106547
16452.35115450439,1023.8851124411486
16476.826485578906,1040.3803889694334
16528.364833700285,1057.1762678772543
16595.31687516653,1074.2966299716031
16664.839279552514,1091.5904130016984
16726.78912587042,1108.8964575909943
16776.194713844186,1126.1761232383237
16813.815744118143,1143.5771163020465
16844.899681925162,1161.4182404010667
16876.735267721167,1180.111483952241
16915.880791147796,1200.0566439021568
16965.953579250836,1221.5491837451948
17026.629482141267,1244.7333649087466
17094.095998482215,1269.6135710781527
17162.74476971837,1296.1141048013653
17227.502629137343,1324.15945734351
17285.991844627442,1353.739407114627
17339.743421041316,1384.9289239676195
17393.966466417427,1417.8498747963658
17455.836456449048,1452.5841229892533
17531.781040747526,1489.0678648515982
17624.655954749738,1527.0074834192008
17731.86668184996,1565.8533294520603
17845.3128554423,1604.849804320775
17953.518444948742,1643.152958218306
18045.581499659507,1679.9791561443972
18115.8459117953,1714.7298696353223
18167.7149902813,1747.0359611391993
18215.001541751444,1776.682882752218
18279.730334086016,1803.4128567334992
18386.294632895588,1826.6424752649139
18553.067814479997,1845.1718639094042
18783.62218098905,1856.9821517919984
19060.243673363297,1859.212759096576
19342.202923268094,1848.376932394127
19570.214346585435,1820.8189544709962
19676.902098773076,1773.3523863675284
19601.321551115765,1703.962254415413
19304.180064473945,1612.421360389838
18779.8220895026,1500.6727927279908
18061.539306226885,1372.869633770894
17218.277872832496,1235.0314609445459
16342.973074630609,1094.359956606776
15534.960796841482,958.332773712943
14880.562726247352,833.7465010740617
14436.52695133691,725.8927586723282
14220.3325180191,638.0222960973113
14209.602953332273,571.1873250168932
14350.506278914763,524.4680346038077
14572.711194396685,495.50602371863823
14806.865096310268,481.2053873835631
15000.092376421591,478.43578868506665
15125.778000331204,484.5860070516783
15185.641095122694,497.8657197604459
15204.284814508064,517.3235106628165
15218.396949416105,542.6215144501433
15264.023993450292,573.6633537479211
15365.548264631683,610.198998164466
15529.182764559724,651.5231510763006
15742.27559367326,696.3471857289588
15977.979908707332,742.870358649105
16203.41101735796,789.0196684098472
16388.658783133447,832.7843142916519
16514.094814759028,872.5506608658778
16574.19691023986,907.3503022471091
16577.29896240591,936.963196511149
16541.8722708316,961.8601099183015
16490.808039564807,983.0113328034815
16445.498846741786,1001.6203095582902
16421.29272135873,1018.8539610303992
16425.26596868491,1035.634269094028
16456.474331053443,1052.5320525972897
16508.147766996513,1069.7718539920402
16570.872865764166,1087.3261100181305
16635.72708663606,1105.0556963592862
16696.546864964992,1122.8474396845047
16750.90639803817,1140.7076346960196
16799.811544511245,1158.7900371524315
16846.452838857622,1177.360426596573
16894.54605523473,1196.7201600985727
16946.80608296419,1217.1222225221663
17003.982911279578,1238.7123614181462
17064.688738737343,1261.5160569640982
17126.01583751312,1285.4737457937176
17184.730464696502,1310.5082058285604
17238.666060002433,1336.5955391850994
17287.861825164735,1363.8089685373295
17335.027283461397,1392.313568825637
17385.07225327891,1422.3073279923965
17443.709055697975,1453.9239481187285
17515.454935389487,1487.128770057026
17601.645663553292,1521.645279265358
17699.207525622583,1556.9428486836212
17800.836572147124,1592.2977480175562
17896.874507206237,1626.9140706777134
17978.61405914466,1660.0669342973983
18042.16772003268,1691.215469676068
18091.60063915262,1720.0340396740305
18139.957389495783,1746.3288690387478
18207.211461756164,1769.840474463529
18314.997057813373,1789.971640532354
18479.0454330509,1805.5148613280548
18701.22395382069,1814.470901380326
18963.619897696804,1814.0436177960135
19226.966059950708,1800.8637742382816
19434.805698296845,1771.4419196885565
19523.31390462604,1722.7895889201031
19435.017111657733,1653.0948135176363
19133.27812746318,1562.3074310955565
18613.79740570776,1452.492373660105
17909.78770300963,1327.8473624513497
17088.882094090863,1194.3482856774435
16241.901228448,1059.0660088543568
15465.775746364912,929.2730437678633
14844.572367147615,811.508514863773
14433.208196606434,710.7819683614481
14247.839373505049,630.0668724236402
14265.215899560088,570.169892043222
14430.966249196548,529.9779819043366
14674.465246960954,507.002805216492
14926.295286145776,498.08125635555166
15133.786719600965,500.0663906007739
15270.841332672542,510.35967145471585
15339.96580638265,527.1872055096991
15366.649205887315,549.5946766992695
15388.26785957087,577.2084330067172
15441.022269446605,609.8647469450054
15548.670737127231,647.2325833488471
15716.014085439683,688.5432849360924
15928.506515560375,732.4992156314443
16157.524496986069,777.3760458721958
16369.266846481956,821.2770002687707
16534.411458829312,862.4575508228153
16635.705336606574,899.6255221696874
16671.524718806257,932.1360067917923
16654.791631662436,960.036397938965
16608.03459307288,983.9620904814506
16556.418539818278,1004.9240978170584
16520.969134925603,1024.0545930502756
16513.918910762826,1042.379506112661
16537.259639789216,1060.6700793141117
16584.49977396431,1079.3950460773174
16644.64832578746,1098.7625240614195
16706.86672766249,1118.8162110133928
16764.19387427836,1139.540895139232
16815.22459545752,1160.9389991743906
16863.42045416993,1183.0586793529078
16914.5758198423,1205.976941060838
16973.574878826214,1229.7595388800628
17041.763702626457,1254.4266062530864
17115.978450831793,1279.9469934433096
17189.622267642233,1306.2682191090792
17255.395647111483,1333.369631485365
17308.630695489734,1361.3119571916397
17349.891607410616,1390.2532357020314
17385.697329106995,1420.4113242402357
17426.853913448034,1451.9736530241348
17484.757043339425,1484.9783498419647
17566.847024295523,1519.2080517243285
17672.871577803515,1554.1409649535783
17793.53297516449,1588.9897567367677
17912.43345867922,1622.8304597537917
18011.152839687456,1654.7892078894047
18076.121672620557,1684.2260175219017
18105.0875018357,1710.8432119739807
18110.74719118492,1734.658270650163
18119.694603690645,1755.8164646608193
18166.119740224098,1774.2693245111245
18281.35607470473,1789.3964392019732
18481.90919441468,1799.683902139972
18759.498669387947,1802.5793980538351
19076.543921793156,1794.6153782638637
19369.3439604834,1771.8319061049258
19559.194084518254,1730.453206862041
19569.386447530323,1667.6968706465389
19344.127490780396,1582.5432901947283
18864.48070245053,1476.281567259567
18156.85636432972,1352.6831391643325
17291.2870398831,1217.7297715238396
16369.321817442991,1078.9210367267751
15504.135012117848,944.283630704578
14797.590388282708,821.2759518798152
14319.89759302456,715.8075387816366
14096.865858772451,631.5669106280482
14107.761147306112,569.779323378444
14293.966166564876,529.4161981679522
14575.821315855384,507.7758893278359
14872.98087634694,501.27671929399503
15122.909090383231,506.26690899559173
15292.925883041704,519.6696656856345
15383.217163337496,539.3393982410684
15420.833253436153,564.0895621286875
15447.145344442895,593.4403921417859
15502.830008724097,627.202460991244
15614.801318748974,665.0429560118444
15788.589470853296,706.1700641859553
16007.823520923252,749.2231382760261
16240.308433417618,792.3882449999762
16448.341646743007,833.6907923142069
16599.90010837381,871.3683342422864
16677.372715735648,904.2097546111536
16681.516863863853,931.7643392848953
16629.909178643844,954.3682381803112
16550.825981343576,972.9917327358057
16474.73548110793,988.9613172819037
16426.081876831657,1003.6413781319267
16417.708787948144,1018.1636015476464
16449.27380670721,1033.2692951221059
16509.69619390729,1049.289575148313
16582.468820074122,1066.2445248832087
16651.905112001128,1084.0088199300324
16708.27527060918,1102.477672594362
16750.302872294713,1121.6760349043266
16784.446487225676,1141.7811107910711
16821.466234717325,1163.0630456647962
16871.636413463893,1185.7788576508663
16940.355614806085,1210.0700354095775
17025.71725242188,1235.909981249803
17118.90756416757,1263.1257654490385
17207.31834016277,1291.487691373405
17279.31127061742,1320.8313819899915
17328.95744626589,1351.1612051728314
17359.008282436393,1382.6871487881056
17380.877546900545,1415.7693294927615
17411.386123842367,1450.778014207738
17467.14709822712,1487.9106772189555
17558.384124466367,1527.0288628782291
17684.35701463388,1567.577688351082
17832.239215584108,1608.6277167300714
17980.293816475703,1649.0386055201743
18104.793897852105,1687.6988251230134
18188.755401500537,1723.761085943067
18229.658381578138,1756.782101608268
18243.27737971223,1786.6945705782457
18261.638659454908,1813.5861100966667
18324.787488417627,1837.3224195848725
18468.02974044342,1857.1120242053325
18708.006942114687,1871.1482922807613
19031.801800559573,1876.4665346317486
19392.89786798605,1869.1149573562057
19716.22706479759,1844.6649409795782
19912.10716381868,1798.9961005020132
19896.264177513625,1729.2086553683193
19611.12277917608,1634.4634213966863
19042.774212141758,1516.5449001387692
18228.80408248421,1379.990142225566
17254.343721545578,1231.7160756921974
16236.734584665392,1080.1896901076773
15302.229978106874,934.2911871625531
14560.337769438804,802.0930589092998
14082.097978388125,689.7991613734047
13887.575804989498,601.0514914807982
13945.415288337374,536.7275720261448
14184.128380041471,495.2394704100702
14511.782168634183,473.23451730325866
14838.726201001044,466.51494008016675
15097.501863098503,470.958175302545
15255.175049171552,483.2381548920502
15315.651280370916,501.2129542893997
15312.3583851452,523.936922449268
15294.198336948795,551.3508083505974
15309.19702070857,583.777262451719
15390.466866276403,621.3842991650985
15548.000160697437,663.7698737887347
15767.85134435552,709.7726795339445
16018.076521393858,757.543253483256
16259.017782534938,804.835959217952
16454.60795094905,849.4259076826103
16581.489338875508,889.5288565628749
16633.73471526572,924.1109008633277
16622.441857425965,953.0130549937794
16570.964327999405,976.8709351675595
16507.6194959336,996.8655531873659
16458.136117903974,1014.3827500334899
16439.8470742775,1030.6761033448925
16458.8733759003,1046.618601033555
16510.572716139683,1062.596754652565
16582.639283274315,1078.5574459277357
16659.662652948122,1094.1753325697675
16727.77694485695,1109.0785564494347
16778.224669942403,1123.0600896367062
16809.102098115847,1136.212772271371
16825.08985866331,1148.9535412996383
16835.46649993734,1161.9378021066002
16851.06078032723,1175.8978983270001
16880.97993565733,1191.4609004728054
16929.951036255166,1209.0048185238572
16996.947903539152,1228.5982751258416
17075.475233781013,1250.041193931188
17155.486655342884,1272.9914850759042
17226.488072544613,1297.1348132101734
17281.01216039559,1322.3397785160705
17317.449421297064,1348.7439646612197
17341.278993422053,1376.7368634699455
17364.099252148688,1406.8379934378563
17400.468165558796,1439.5031029470597
17463.282332628383,1474.9174959657826
17559.033906091056,1512.8444415276072
17684.556596221886,1552.5841918048584
17826.64481527019,1593.0674596178224
17965.18574684986,1633.0645496603343
18079.343572877387,1671.4501215751964
18155.193488501514,1707.4369921628168
18192.40675450489,1740.6905120416352
18207.46839141557,1771.261422467227
18231.61919267088,1799.325017107653
18303.14695391735,1824.7755452076894
18455.441817174684,1846.7799969768753
18703.84030207632,1863.4274724820539
19035.16330087865,1871.6069515746335
19403.62622523723,1867.204164797441
19735.4000987642,1845.6349206408154
19941.83391498127,1802.6447650869718
19938.82016831536,1735.225832833998
19667.74384159876,1642.4533382316522
19112.559078641338,1526.041799562649
18308.14391471893,1390.468830711659
17337.11542886504,1242.6030243838063
16315.234420527722,1090.8816016828332
15368.579878315562,944.1863615718653
14607.955578292538,810.637017937456
14106.825996538457,696.5409951439482
13888.201886901976,605.7026796125301
13923.536341354384,539.2119019416476
14143.513508709628,495.72204236214094
14457.516178224589,472.12007835058864
14776.415272936973,464.41072419804664
15032.714614157649,468.60325324813556
15193.131083572329,481.40870933901033
15261.032650577945,500.6192389829067
15269.071536089996,525.1312271500873
15264.978318281495,554.665173057003
15295.09262924007,589.3044086612225
15390.403411428,629.0058862731048
15558.701042372708,673.2246379827891
15784.350216935843,720.7461690381017
16034.862803881417,769.7539627843281
16271.588461299554,818.0922839356591
16460.954760177065,863.6355035177062
16582.947458675106,904.6554940723408
16634.73298020242,940.0903625825688
16629.022601546774,969.6541748860235
16588.391112054,993.775618123634
16537.805090441943,1013.3991830687914
16497.830327581298,1029.7133586326945
16480.40692098462,1043.8800518983908
16487.98773465316,1056.8282474600605
16515.648290938203,1069.1488458500212
16554.893884972043,1081.095983494953
16597.564611110534,1092.6723838240182
16638.505403544383,1103.7592791615884
16676.353273579665,1114.2478868265312
16712.599715646294,1124.137799209847
16749.70525984974,1133.5833932440275
16789.272773047243,1142.8867670278312
16831.08780270236,1152.4497938655556
16873.336184982963,1162.7056901127544
16913.742333430208,1174.0514740797482
16950.973994784115,1186.7982578421722
16985.582761929916,1201.1488793344593
17020.005601161185,1217.2043723785275
17057.61388670575,1234.9939381874633
17101.254397925757,1254.5183102928302
17151.97907375528,1275.793942060837
17208.59412998817,1298.8852892290608
17268.298421735926,1323.9146347384315
17328.1768849495,1351.043447938751
17386.88704728627,1380.4259385915993
17445.72139912178,1412.143340416454
17508.4363008322,1446.1347580980405
17579.749417041836,1482.144722653372
17663.027211022254,1519.7065834374675
17758.151948087485,1558.173247780746
17860.651365280497,1596.7932566732652
17962.802206104392,1634.813800693977
18056.67153513296,1671.577978275149
18138.191531103905,1706.5769185204852
18210.709710533378,1739.4226211063067
18286.312297962733,1769.7257310377365
18383.72058868087,1796.8910274039058
18522.61833677047,1819.8751958586013
18715.573692842758,1836.9770145519985
18959.834483156585,1845.7400913141641
19231.77865347926,1843.0365677321688
19486.436189263062,1825.3661547595018
19663.27951315484,1789.354470749072
19697.7101955022,1732.3795704549009
19535.86518556041,1653.2103461597162
19149.09463473631,1552.5186942071628
18544.16711298824,1433.1374946278213
17766.098707578305,1299.9791739352975
16892.297982138345,1159.596831008792
16018.984495185538,1019.4464438397158
15242.929270391158,886.9760263249078
14642.870217951524,768.7087432542388
14265.086271856144,669.4910012782865
14116.52617534824,592.0416856394437
14166.893829479028,536.8731025964171
14358.76495876753,502.57371178586186
14622.80715552272,486.366945552616
14894.043057220915,484.8074095399292
15125.108862502178,494.45750080804453
15293.551666164416,512.4068287085953
15402.008877883796,536.5470729539019
15472.07244544902,565.5818728196462
15534.205549842804,598.8173354614443
15616.852530085622,635.827375658336
15737.72717339312,676.1084211653318
15899.3200672478,718.8271114381323
16089.281782623772,762.7278360453231
16284.949295097222,806.2159943905041
16460.27157210991,847.5822380668726
16592.983865426257,885.2960164936018
16670.105253210757,918.2821885750757
16690.536371746944,946.1043900775419
16664.451960678285,969.0086868921574
16610.038066909812,987.8212638820402
16548.704463727638,1003.7329093897956
16500.10963083295,1018.030461349149
16478.186149034966,1031.8446745871079
16488.95192695513,1045.9739955374496
16530.37880786457,1060.818620755909
16594.09844821627,1076.4269076064866
16668.3513274501,1092.626043642391
16741.380245082848,1109.1889874019184
16804.445412097055,1125.9848249729118
16853.7794219193,1143.070126089422
16891.07404082846,1160.7006040259103
16922.44834603452,1179.2683895957693
16956.22389466006,1199.192662082804
17000.146358006936,1220.8037878389514
17058.860544323707,1244.2602663358564
17132.402957723956,1269.5245094793588
17216.20608145627,1296.4023581171184
17302.662020586322,1324.6291680760214
17383.78802379401,1353.9693983309319
17454.131534349686,1384.2920695229616
17512.899196554463,1415.5928133129003
17564.47905229161,1447.9519316719507
17617.02686558222,1481.4409003174158
17679.466917709105,1516.0093877364486
17757.89072877468,1551.3941626355386
17852.68589716253,1587.0863050098676
17957.624613004995,1622.3745067253767
18061.56395428714,1656.4551834750314
18152.50524049704,1688.5731730166606
18222.81430325792,1718.1393333029066
18273.75796677434,1744.7705971345827
18317.44043766305,1768.216514425612
18374.83266730005,1788.170568794445
18469.756643663623,1804.0056397710123
18620.08345653428,1814.5086770975317
18828.57975279465,1817.7079266085207
19076.36751312082,1810.8787581805277
19321.594173741,1790.7799020314706
19504.66319088925,1754.117123896508
19559.55693983901,1698.1691357373436
19428.912508564965,1621.4573542751646
19079.162076398672,1524.3124755684516
18511.674726855003,1409.196744668528
17766.61374394923,1280.6826313358938
16917.98761300745,1145.0581910889628
16060.65327109066,1009.6106909505102
15292.184924107592,881.7132686342242
14693.9301425452,767.8859794930964
14315.825456347957,673.0103962821096
14168.55941645597,599.843477944423
14224.733467811482,548.9097091814763
14428.331791344372,518.766975005242
14709.728925075133,506.5618531569217
15002.204106225514,508.73328757690285
15255.806457861869,521.7029568159923
15445.402764578144,542.4095199869757
15571.504081238012,568.5955548677096
15654.473840672195,598.8255471285747
15724.400465596966,632.2820118079588
15809.83643104394,668.4372203059488
15928.575259682171,706.7183713684673
16082.751851724384,746.2713205815472
16259.133648160723,785.8881018861978
16433.961657394888,824.1092630880191
16580.52344360767,859.4593433354711
16677.081165579566,890.7370171004801
16712.922110867643,917.269565685322
16691.0307782082,939.0559715522356
16626.938636971663,956.7581574679873
16544.372029605074,971.5444447855857
16469.108099905865,984.8300334903404
16422.787062407886,997.984985662516
16418.2784609285,1012.0845706978998
16457.650200246004,1027.7600923876716
16533.022959036047,1045.1766482632015
16629.82342431171,1064.1277185075548
16731.371219255045,1084.2058344975321
16823.475607218552,1104.9921978016464
16897.820832795187,1126.2096486618898
16953.33505652566,1147.8009397464157
16995.34458810588,1169.9213301167788
17032.946799789777,1192.862114205949
17075.52188823337,1216.9412876450501
17129.513536252376,1242.4035827750965
17196.482194369626,1269.3636312835347
17273.005863723803,1297.8067815135605
17352.394363082083,1327.6392041998627
17427.57732847072,1358.7604046114436
17494.11745021854,1391.1234627198082
17552.231542460548,1424.7538085955161
17607.017076353983,1459.7140472368978
17666.699094618943,1496.0242599318549
17739.44023045992,1533.5663425422365
17829.8469201885,1572.010024579592
17936.533828416712,1610.7932226675473
18051.8562132463,1649.1710861703802
18164.22498074368,1686.3220683145669
18262.481964279945,1721.4744001525482
18340.94314707158,1754.0017165581885
18403.236652129468,1783.4389081928416
18463.191982679407,1809.390088751214
18541.810425475847,1831.3353433697066
18660.5765866356,1848.381968184129
18832.692086056253,1859.0369888633857
19054.78762097817,1861.0897183511884
19301.931826141168,1851.6795153408293
19528.137553053053,1827.5853564846832
19673.173725988367,1785.718481085528
19674.68951599588,1723.7410802958666
19482.973246732898,1640.6887738824369
19074.629307985,1537.4560994445221
18461.4244611504,1417.0197216209185
17691.60235252406,1284.322074804824
16842.83891350216,1145.8084121733773
16008.199399442889,1008.6861242952564
15278.337974341042,880.0380173502572
14724.208938219648,765.9551860597127
14384.43428689886,670.851481087617
14260.230617149497,597.081123223408
14318.798727482255,544.9137907895354
14503.894813544548,512.8441166067104
14750.545161199556,498.1437649275306
15000.006870200868,497.52018362400304
15211.308408323455,507.7360435131164
15366.89745247343,526.0676983396456
15471.683626855296,550.5315547903864
15546.559144242008,579.8698217668965
15618.8094622108,613.3454568137588
15712.362682222983,650.4362406099328
15840.500940411635,690.5314649278372
16002.65449214865,732.720782440535
16185.579405882174,775.7294486007521
16367.99258056486,818.00848761723
16526.935415136475,857.9448848563325
16643.92529064896,894.1266567507591
16709.302942671125,925.5871193442077
16723.906607893357,951.9627856032323
16698.035373792653,973.5256639441532
16648.35478927926,991.0852002614675
16593.78607684218,1005.7882874259718
16551.466182168966,1018.8694057324211
16533.637188953766,1031.4118924578493
16545.95045000675,1044.1744744531743
16587.28757938393,1057.5174075265022
16650.900709548594,1071.435656436098
16726.491939875894,1085.679634676123
16802.770782610292,1099.9237429940413
16870.01158224594,1113.9339277298143
16922.153376812734,1127.6893674189228
16958.04199604989,1141.4286003021205
16981.530548463223,1155.6126011428364
17000.35203687995,1170.8205449458665
17023.95084116986,1187.6121366705538
17060.756795062505,1206.3986729601718
17115.616007141714,1227.3612451481583
17188.15416094171,1250.4397093849489
17272.672291542494,1275.3943034926965
17359.767702191697,1301.9192223769937
17439.32847786801,1329.770696020847
17504.038718730728,1358.8663960052954
17552.24300353754,1389.3205914655425
17589.094278398537,1421.3987715525175
17625.379088441987,1455.401138148914
17674.16700843746,1491.508745671613
17746.23528764226,1529.6411898617996
17845.790767530787,1569.3749116696413
17968.109743025336,1609.9549073853368
18100.241786600996,1650.4035762026012
18224.967988009088,1689.6967574766918
18327.04387645456,1726.949281612499
18399.776657359347,1761.5404619157687
18449.554510774105,1793.119876236216
18496.285167748367,1821.4652931813446
18568.794994964224,1846.210608240442
18695.812101924104,1866.5096812730426
18894.739066117927,1880.7373634550513
19161.49099640293,1886.3392031291614
19464.82655254684,1879.9198466922935
19747.68603520077,1857.609150165574
19936.253140733697,1815.6754513121775
19955.252155986967,1751.284696008853
19746.02148180765,1663.2514929538133
19282.78044573868,1552.6096256070978
18582.62227544928,1422.8529169556919
17706.16090437203,1279.7596785878193
16748.090992527505,1130.8017806480207
15819.556182544746,984.2317807188494
15026.41869057896,848.0156501338054
14448.653369946676,728.815580034471
14125.821748171747,631.2174216989515
14051.987518190215,557.3426343095637
14180.963573638652,506.8986424708704
14440.129489259632,477.62551141722236
14748.960737472264,466.01427939900884
15037.424972710163,468.1226435153258
15259.751116159689,480.30756278505856
15400.60162899101,499.73092812653243
15472.891521459744,524.5622222483017
15508.745933181814,553.8822524847174
15546.749056832416,587.3637652630399
15619.2973798094,624.8507315560852
15743.430999532698,665.9688292109854
15917.19965572986,709.8754258658847
16121.87699474624,755.207501832045
16328.69852402368,800.2256871502444
16507.714085152355,843.0986229740054
16636.057356386405,882.2378350361113
16703.430660788385,916.586448233773
16713.64741069216,945.7848005985084
16682.3025720462,970.1747683975586
16631.683797659844,990.6504394386687
16584.62611926871,1008.4028685659766
16559.05289172481,1024.630827033869
16564.508596649895,1040.2925998669696
16601.27229050578,1055.9568651578463
16661.88642006564,1071.7796339427555
16734.353158100814,1087.598481703554
16805.959920811252,1103.1047223924008
16866.713407429448,1118.036531734204
16911.61791001006,1132.3351314259369
16941.41586111262,1146.2211412428844
16961.803408198433,1160.174080665415
16981.459187662735,1174.8271255655666
17009.43860579715,1190.813458237477
17052.579025726653,1208.6133770289307
17113.53793340139,1228.4495173561147
17189.954356494174,1250.2618956404096
17274.99052561864,1273.7696293426327
17359.19719045019,1298.5992734721033
17433.29761705618,1324.4385563974502
17491.179937514054,1351.1652291717005
17532.2224025335,1378.9068202484282
17562.139167442976,1408.0070980233468
17591.863679899052,1438.9036278373374
17634.538430197423,1471.9497529639668
17701.31827560684,1507.2347527396375
17797.21950825752,1544.4608530015828
17918.452131050126,1582.9223267238287
18052.421829247567,1621.602617160649
18180.879001444795,1659.3678414688598
18285.685785035075,1695.200113586571
18355.663366450008,1728.3931490563612
18392.319591736417,1758.6338564742725
18412.227744900825,1785.9195154594154
18444.546606557607,1810.305912980213
18523.51701940045,1831.536114883072
18677.38956356292,1848.6471480391674
18916.63947779385,1859.6777247205669
19225.02357512288,1861.5938648370338
19556.71356866701,1850.5086188049227
19841.37741886905,1822.2044032245076
19996.98071664952,1772.887439405013
19947.812542951546,1700.0337776845668
19643.47740505327,1603.145046175006
19073.908934302654,1484.2328101721814
18276.137297062694,1347.8963533064127
17330.472127510533,1200.9410637916767
16346.4557722746,1051.5846232197084
15441.657106623845,908.3915756149595
14718.34008842288,779.1401467249293
14243.674584579168,669.8420264713503
14038.261726418608,584.1014531425237
14075.562459583429,522.9226097252931
14291.960410329224,484.97328270012235
14604.463782567324,467.21307462347403
14931.2123627994,465.720605397009
15209.49062797514,476.52334868366415
15406.934945949868,496.2517553523812
15523.72163047618,522.4990896571123
15586.089455161298,553.8524312676652
15633.839565813929,589.6456123493597
15705.843213105529,629.5494031194414
15827.74678038607,673.1427486316373
16005.04297404529,719.5965676921147
16222.861461935385,767.5550946569186
16451.805802360603,815.2343582577859
16657.523002295668,860.6926119021314
16810.871121234548,902.1812590921343
16895.70597617413,938.4685012286516
16912.300065338783,969.0437634513158
16875.865792115826,994.1518488656726
16811.113221365442,1014.6580151482385
16744.80999581969,1031.7927821799296
16698.67285769399,1046.8547970886382
16684.572939840036,1060.9543045110368
16703.154855307155,1074.8594692526956
16745.861731059766,1088.9709832646438
16799.365996880417,1103.4094575147644
16850.80231880207,1118.1678449343215
16892.12069392836,1133.2668460728987
16922.29943949106,1148.8580411597486
16946.91694935013,1165.2436981131075
16975.43408452108,1182.8148280143455
17017.23346823878,1201.9388414967736
17077.80632704634,1222.8452519003495
17156.385517720446,1245.5569467835235
17245.834904831572,1269.8964147718998
17334.867996865243,1295.5675393815975
17411.90245057124,1322.2842766722206
17469.291527954767,1349.8980470023332
17506.487266680215,1378.4731054181545
17530.958572521362,1408.2749947971038
17556.355067110624,1439.6666610945051
17598.293591978483,1472.9402894982131
17668.98551780363,1508.1389266737378
17772.44479993955,1544.9308911846651
17902.017126285973,1582.5874031681265
18041.39116111816,1620.0822736268406
18169.215367215136,1656.2909310702564
18266.232715712507,1690.2276456965728
18322.83612460025,1721.2377838634982
18344.4960697607,1749.065423011737
18352.837383426624,1773.7474710821607
18381.238290193734,1795.3368457248325
18465.435010839312,1813.5154290174537
18631.287679772217,1827.2051094810622
18883.075105424927,1834.3064500089597
19196.002781301504,1831.6799473156068
19515.833669888445,1815.4347170672854
19766.809490867392,1781.5143251057887
19866.75758473324,1726.4879883527615
19746.110786276586,1648.3893451838844
19366.158595399957,1547.4135968697676
18731.66699773357,1426.2980030926517
17894.18274663276,1290.2697890030763
16944.609937167344,1146.536824819566
15996.41201645386,1003.3982948742732
15163.283601866731,869.1398203219959
14536.645231912393,750.9281060141204
14168.3987004934,653.9211285907384
14063.008646952683,580.7606906706724
14180.529327589837,531.5270758240301
14449.362180992002,504.13228643307417
14785.098752255868,495.03441952977477
15110.433313320838,500.09369402780305
15371.158532338412,515.374324209989
15544.615945180922,537.7276022145609
15639.217271460137,565.0598389516555
15686.111164799153,596.2748882613273
15726.049100016582,630.9619890276771
15795.49008040834,668.9553851201864
15915.780764089162,709.9102238033918
16088.011980435234,753.0178558942162
16294.321131922572,796.9316380529832
16504.550780764814,839.9079694198595
16685.81004456933,880.10556360178
16811.94895309336,915.94523345068
16870.30929996739,946.4222383691667
16864.16243982838,971.2839821741267
16810.614517931554,991.0294707121685
16735.033576226862,1006.739594544505
16663.888681371514,1019.793590214966
16618.110833811763,1031.554382267419
16608.703542104333,1043.1075145535665
16635.525268741607,1055.1162301709844
16689.20537620664,1067.816942934912
16755.314454879805,1081.1369894692941
16819.395909221934,1094.8827378711258
16871.374242088503,1108.9302431524277
16908.16421738282,1123.3563146676788
16933.895540356803,1138.4721736264032
16957.867315782965,1154.7564706047422
16990.972115435474,1172.7181706667666
17041.730646436125,1192.7421890625442
17113.162070926057,1214.9749302667308
17201.46452299579,1239.292044949239
17296.956806972546,1265.3617591665895
17387.06497947552,1292.7834747128804
17460.500065370732,1321.2539668843533
17511.346793863584,1350.7015537405512
17541.70976566975,1381.3364885560975
17561.901605633797,1413.5917038502562
17587.85162920643,1447.96420002449
17636.290891957964,1484.8024191572863
17719.07494424053,1524.1072003169706
17838.469216344896,1565.4151106536601
17985.143781742394,1607.8110519257798
18139.952347577386,1650.0773111754509
18279.441466942742,1690.9400702553967
18383.759399030077,1729.3362638673066
18444.613145093088,1764.6067890666243
18470.533423552613,1796.5341695104246
18487.16939777983,1825.1832870085098
18531.61482466024,1850.5632586122738
18641.558142817747,1872.1907351450996
18841.83822937923,1888.6811401385646
19132.20059123749,1897.5088886237438
19480.230579280447,1895.052495183981
19822.41538773623,1876.9785827673359
20074.24361604332,1838.9338473399519
20147.715383313152,1777.4274271033096
19972.331930364548,1690.7214316200896
19514.272298170687,1579.5238340358865
18788.52068597388,1447.3047999208486
17860.257670138893,1300.1310659450317
16834.504062045315,1146.01682532895
15836.08755166594,993.8986888590465
14984.621310378225,852.4294250085233
14370.583135726856,728.8281205009912
14038.342534290068,628.0119523238657
13980.157024742884,552.1698442219397
14142.259495772838,500.83720720155486
14441.006730393752,471.4190997876068
14784.54007677411,460.0141541731647
15094.208848921757,462.33617054752824
15320.41466173946,474.5262433466288
15449.368125551258,493.6939222248934
15499.923330498776,518.1068701382075
15512.372225347455,547.0420949476829
15533.072629403892,580.3935069031627
15599.539086986282,618.1803852074855
15730.025755426175,660.109114263893
15919.957649255512,705.3078756545958
16145.393798671294,752.2930449978822
16371.704080657182,799.1555914494317
16564.37182626326,843.8955632711504
16698.590126837134,884.7980782290758
16765.06261994619,920.7421703166335
16770.823594382346,951.3618996847052
16735.469567251712,977.0267884791632
16684.46124736364,998.6609216950565
16641.776087768692,1017.4620478230963
16624.06653562108,1034.6030421692626
16637.7428137051,1050.9942921208196
16679.352791668825,1067.1603616394711
16738.62823667071,1083.2468105542343
16802.896873265236,1099.135018648083
16861.37084278754,1114.6151110231651
16908.09577806027,1129.5565235420947
16942.926647629607,1144.0237947185326
16970.56710753343,1158.3077855950673
16998.25895894482,1172.8718223534847
17033.002850159977,1188.2390379962671
17079.192789530844,1204.8636908603578
17137.308012145913,1223.0312341357683
17203.93329714989,1242.819702337146
17272.99159739667,1264.1330426994352
17337.765824277758,1286.7924998029507
17393.114669845712,1310.6527063614546
17437.264990135114,1335.7006627513106
17472.67738789771,1362.1008315213135
17505.703316832616,1390.1665896785103
17545.043407265883,1420.2621281149075
17599.330058369505,1452.6622921681314
17674.43237267161,1487.4134959411767
17771.24704548711,1524.2414655351167
17884.726805011986,1562.539598481484
18004.66687870046,1601.4478983874076
18118.332131013238,1640.0032352624416
18214.445279934127,1677.3156804799676
18287.51763628479,1712.711222288776
18341.16792561917,1745.7839572034989
18389.098708793663,1776.322001031485
18452.856181897485,1804.106716501548
18556.33157378046,1828.6256773344112
18717.977422258595,1848.7748219073392
18942.619073313897,1862.6436616254696
19215.233200655886,1867.4718888618077
19498.91688392537,1859.8348652076343
19738.428637132198,1836.0646860145503
19869.30448784001,1792.8541839041159
19830.98394199244,1727.9380713473784
19581.06848170239,1640.7127785650507
19107.195051949595,1532.6545159283783
18433.291047748226,1407.42655404799
17618.18192844236,1270.6261266952467
16746.3702605803,1129.1957716633037
15912.809203570325,990.5960184160169
15205.09729251732,861.8887568496925
14687.259672869992,748.9004646345077
14388.924247241392,655.61666789027
14302.330874111673,583.907749115231
14387.601275126484,533.6139152936291
14584.605274671962,502.9412579509017
14828.164170782882,489.0593770629823
15062.66241529279,488.75794986070485
15252.547629212111,499.0213454345886
15386.526635810793,517.414452574063
15475.094569552251,542.2289134903982
15542.824640802432,572.4016583969327
15618.098683990822,607.2710315644171
15723.361216604708,646.2673779421604
15868.488972442146,688.6387163938336
16048.703929410787,733.2896905361471
16247.019276547744,778.7716468464484
16439.93742315251,823.4156926890332
16604.366811658514,865.5615862224921
16723.64980683398,903.8129546263425
16791.136433386062,937.2479449697405
16810.65963315319,965.5322768975946
16794.24352575564,988.9120588812078
16758.108868379208,1008.0971834643302
16718.346449725366,1024.073261039659
16687.483655090517,1037.8941650594136
16672.68960384883,1050.505866261317
16675.752736346156,1062.6373727901034
16694.431334939898,1074.7718340244057
16724.470490278614,1087.1874155234173
16761.547546948732,1100.040088102165
16802.60410896321,1113.453313405399
16846.336090916066,1127.5836978475031
16892.91948696273,1142.6446202111904
16943.2579238668,1158.8868194762051
16998.11150628896,1176.5503418233234
17057.420076329,1195.8113501301461
17120.016848676496,1216.7475818262544
17183.79249731211,1239.338054088648
17246.25100976129,1263.498964943147
17305.30977331731,1289.1433072109025
17360.135846467536,1316.2414086451663
17411.777408575977,1344.857063955389
17463.353803610542,1375.140338694001
17519.62972185763,1407.2718412235924
17585.934736043808,1441.370148453525
17666.5913302246,1477.3886917818068
17763.2376001176,1515.0356228700687
17873.596036574785,1553.746782025038
17991.257991240203,1592.7277905095832
18106.863108597558,1631.0598227033747
18210.65807856297,1667.8408726471646
18295.908707870414,1702.3175543713205
18362.174478013927,1733.9579515180358
18417.223172110003,1762.4270361050592
18476.51050420681,1787.4516092260544
18559.71483165637,1808.595899042342
18684.693657486903,1825.0027751121384
18860.17723888398,1835.1787696873798
19079.224264695506,1836.9052739247031
19315.652227242605,1827.3393978615986
19525.1688443217,1803.3281714761556
19651.821499182606,1761.9073231143777
19638.91193348462,1700.9035557747757
19442.106636414133,1619.5210952025675
19041.553146356757,1518.780837989001
18449.721783963138,1401.6993072000953
17712.53621367054,1273.1425608691911
16902.9603679817,1139.3571258865777
16108.155574895656,1007.2503360344043
15413.064394889872,883.5488981131416
14884.305490080184,773.9927615958919
14558.258713696358,682.7139111006609
14436.159092598791,611.9080077381523
14487.18984145456,561.8410931578418
14658.482117036148,531.1601776181443
14889.181365809864,517.4135996593816
15124.812913401873,517.6496870872842
15328.313282850751,528.958586134827
15485.21493050745,548.8512619551648
15602.223351556357,575.4221918687459
15700.27968524062,607.3030681232607
15804.625462077036,643.4674370799991
15934.997157217102,682.9773720133323
16098.753480314885,724.7664519957162
16288.636173102632,767.5300971524373
16485.362634208945,809.7535092216749
16663.81577223678,849.862172151553
16800.65002613145,886.4434086316035
16880.913434252354,918.4695677697441
16901.80005029339,945.4575423486594
16872.67957951903,967.5222154511512
16811.74702022932,985.3145677615419
16740.617333727107,999.8676960408318
16678.676527405463,1012.3962489327265
16638.883435500145,1024.1011945297068
16626.08325122713,1036.0222801271034
16637.986621076583,1048.959951539826
16668.097735681724,1063.4648086355733
16709.319163884353,1079.8739805464047
16756.878974822484,1098.3656358674011
16809.611779931405,1119.0064806168616
16869.32116552587,1141.7794543312634
