Tran,San,Gia_tri_PPG,Truc_0
300.0,-300.0,0.0,0.0
300.0,-300.0,0.0,0.0
300.0,-300.0,0.0,0.0
300.0,-300.0,0.0,0.0
300.0,-300.0,0.0,0.0
300.0,-300.0,0.0,0.0
300.0,-300.0,0.0,0.0
300.0,-300.0,0.0,0.0
300.0,-300.0,0.0,0.0
300.0,-300.0,0.0,0.0
300.0,-300.0,0.0,0.0
300.0,-300.0,0.0,0.0
300.0,-300.0,0.0,0.0
300.0,-300.0,0.0,0.0
300.0,-300.0,0.0,0.0
300.0,-300.0,0.0,0.0
300.0,-300.0,0.0,0.0
300.0,-300.0,0.0,0.0
300.0,-300.0,0.0,0.0
300.0,-300.0,0.0,0.0
300.0,-300.0,0.0,0.0
300.0,-300.0,0.0,0.0
300.0,-300.0,0.0,0.0
300.0,-300.0,0.0,0.0
300.0,-300.0,0.0,0.0
300.0,-300.0,0.0,0.0
300.0,-300.0,0.0,0.0
300.0,-300.0,0.0,0.0
300.0,-300.0,0.0,0.0
300.0,-300.0,0.0,0.0
300.0,-300.0,0.0,0.0
300.0,-300.0,0.0,0.0
300.0,-300.0,0.0,0.0
300.0,-300.0,0.0,0.0
300.0,-300.0,0.0,0.0
300.0,-300.0,0.0,0.0
300.0,-300.0,0.0,0.0
300.0,-300.0,0.0,0.0
300.0,-300.0,0.0,0.0
300.0,-300.0,0.0,0.0
300.0,-300.0,0.0,0.0
300.0,-300.0,0.0,0.0
300.0,-300.0,0.0,0.0
300.0,-300.0,0.0,0.0
300.0,-300.0,0.0,0.0
300.0,-300.0,0.0,0.0
300.0,-300.0,0.0,0.0
300.0,-300.0,0.0,0.0
300.0,-300.0,0.0,0.0
300.0,-300.0,0.0,0.0
300.0,-300.0,0.0,0.0
300.0,-300.0,0.0,0.0
300.0,-300.0,0.0,0.0
300.0,-300.0,0.0,0.0
300.0,-300.0,0.0,0.0
300.0,-300.0,0.0,0.0
300.0,-300.0,0.0,0.0
300.0,-300.0,0.0,0.0
300.0,-300.0,0.0,0.0
300.0,-300.0,0.0,0.0
300.0,-300.0,0.0,0.0
300.0,-300.0,0.0,0.0
300.0,-300.0,0.0,0.0
300.0,-300.0,0.0,0.0
300.0,-300.0,0.0,0.0
300.0,-300.0,0.0,0.0
300.0,-300.0,0.0,0.0
300.0,-300.0,0.0,0.0
300.0,-300.0,0.0,0.0
300.0,-300.0,0.0,0.0
300.0,-300.0,0.0,0.0
300.0,-300.0,0.0,0.0
300.0,-300.0,0.0,0.0
300.0,-300.0,0.0,0.0
300.0,-300.0,0.0,0.0
300.0,-300.0,0.0,0.0
300.0,-300.0,0.0,0.0
300.0,-300.0,0.0,0.0
300.0,-300.0,0.0,0.0
300.0,-300.0,0.0,0.0
300.0,-300.0,0.0,0.0
300.0,-300.0,0.0,0.0
300.0,-300.0,0.0,0.0
300.0,-300.0,0.0,0.0
300.0,-300.0,0.0,0.0
300.0,-300.0,0.0,0.0
300.0,-300.0,0.0,0.0
300.0,-300.0,0.0,0.0
300.0,-300.0,0.0,0.0
300.0,-300.0,0.0,0.0
300.0,-300.0,0.0,0.0
300.0,-300.0,0.0,0.0
300.0,-300.0,0.0,0.0
300.0,-300.0,0.0,0.0
300.0,-300.0,0.0,0.0
300.0,-300.0,0.0,0.0
300.0,-300.0,0.0,0.0
300.0,-300.0,0.0,0.0
300.0,-300.0,0.0,0.0
300.0,-300.0,0.0,0.0
300.0,-300.0,0.0,0.0
300.0,-300.0,0.0,0.0
300.0,-300.0,0.0,0.0
300.0,-300.0,0.0,0.0
300.0,-300.0,0.0,0.0
300.0,-300.0,0.0,0.0
300.0,-300.0,0.0,0.0
300.0,-300.0,0.0,0.0
300.0,-300.0,0.0,0.0
300.0,-300.0,0.0,0.0
300.0,-300.0,0.0,0.0
300.0,-300.0,0.0,0.0
300.0,-300.0,0.0,0.0
300.0,-300.0,0.0,0.0
300.0,-300.0,0.0,0.0
300.0,-300.0,0.0,0.0
300.0,-300.0,0.0,0.0
300.0,-300.0,0.0,0.0
300.0,-300.0,0.0,0.0
300.0,-300.0,0.0,0.0
300.0,-300.0,0.0,0.0
300.0,-300.0,0.0,0.0
300.0,-300.0,0.0,0.0
300.0,-300.0,0.0,0.0
300.0,-300.0,0.0,0.0
300.0,-300.0,0.0,0.0
300.0,-300.0,0.0,0.0
300.0,-300.0,0.0,0.0
300.0,-300.0,0.0,0.0
300.0,-300.0,0.0,0.0
300.0,-300.0,0.0,0.0
300.0,-300.0,0.0,0.0
300.0,-300.0,0.0,0.0
300.0,-300.0,0.0,0.0
300.0,-300.0,0.0,0.0
300.0,-300.0,0.0,0.0
300.0,-300.0,0.0,0.0
300.0,-300.0,0.0,0.0
300.0,-300.0,0.0,0.0
300.0,-300.0,0.0,0.0
300.0,-300.0,0.0,0.0
300.0,-300.0,0.0,0.0
300.0,-300.0,0.0,0.0
300.0,-300.0,0.0,0.0
300.0,-300.0,0.0,0.0
300.0,-300.0,0.0,0.0
300.0,-300.0,0.0,0.0
300.0,-300.0,0.0,0.0
300.0,-300.0,0.0,0.0
300.0,-300.0,0.0,0.0
300.0,-300.0,0.0,0.0
300.0,-300.0,0.0,0.0
300.0,-300.0,0.0,0.0
300.0,-300.0,0.0,0.0
300.0,-300.0,0.0,0.0
300.0,-300.0,0.0,0.0
300.0,-300.0,0.0,0.0
300.0,-300.0,0.0,0.0
300.0,-300.0,0.0,0.0
300.0,-300.0,0.0,0.0
300.0,-300.0,0.0,0.0
300.0,-300.0,0.0,0.0
300.0,-300.0,0.0,0.0
300.0,-300.0,0.0,0.0
300.0,-300.0,0.0,0.0
300.0,-300.0,0.0,0.0
300.0,-300.0,0.0,0.0
300.0,-300.0,0.0,0.0
300.0,-300.0,0.0,0.0
300.0,-300.0,0.0,0.0
300.0,-300.0,0.0,0.0
300.0,-300.0,0.0,0.0
300.0,-300.0,0.0,0.0
300.0,-300.0,0.0,0.0
300.0,-300.0,0.0,0.0
300.0,-300.0,0.0,0.0
300.0,-300.0,0.0,0.0
300.0,-300.0,0.0,0.0
300.0,-300.0,0.0,0.0
300.0,-300.0,0.0,0.0
300.0,-300.0,0.0,0.0
300.0,-300.0,0.0,0.0
300.0,-300.0,0.0,0.0
300.0,-300.0,0.0,0.0
300.0,-300.0,0.0,0.0
300.0,-300.0,0.0,0.0
300.0,-300.0,0.0,0.0
300.0,-300.0,0.0,0.0
300.0,-300.0,0.0,0.0
300.0,-300.0,0.0,0.0
300.0,-300.0,0.0,0.0
300.0,-300.0,0.0,0.0
300.0,-300.0,0.0,0.0
300.0,-300.0,0.0,0.0
300.0,-300.0,0.0,0.0
300.0,-300.0,0.0,0.0
300.0,-300.0,0.0,0.0
300.0,-300.0,0.0,0.0
300.0,-300.0,0.0,0.0
300.0,-300.0,0.0,0.0
300.0,-300.0,0.0,0.0
300.0,-300.0,0.0,0.0
300.0,-300.0,0.0,0.0
300.0,-300.0,0.0,0.0
300.0,-300.0,0.0,0.0
300.0,-300.0,0.0,0.0
300.0,-300.0,0.0,0.0
300.0,-300.0,0.0,0.0
300.0,-300.0,0.0,0.0
300.0,-300.0,0.0,0.0
300.0,-300.0,0.0,0.0
300.0,-300.0,0.0,0.0
300.0,-300.0,0.0,0.0
300.0,-300.0,0.0,0.0
300.0,-300.0,0.0,0.0
300.0,-300.0,0.0,0.0
300.0,-300.0,0.0,0.0
300.0,-300.0,0.0,0.0
300.0,-300.0,0.0,0.0
300.0,-300.0,0.0,0.0
300.0,-300.0,0.0,0.0
300.0,-300.0,0.0,0.0
300.0,-300.0,0.0,0.0
300.0,-300.0,0.0,0.0
300.0,-300.0,0.0,0.0
300.0,-300.0,0.0,0.0
300.0,-300.0,0.0,0.0
300.0,-300.0,0.0,0.0
300.0,-300.0,0.0,0.0
300.0,-300.0,0.0,0.0
300.0,-300.0,0.0,0.0
300.0,-300.0,0.0,0.0
300.0,-300.0,0.0,0.0
300.0,-300.0,0.0,0.0
300.0,-300.0,0.0,0.0
300.0,-300.0,0.0,0.0
300.0,-300.0,0.0,0.0
300.0,-300.0,0.0,0.0
300.0,-300.0,0.0,0.0
300.0,-300.0,0.0,0.0
300.0,-300.0,0.0,0.0
300.0,-300.0,0.0,0.0
300.0,-300.0,0.0,0.0
300.0,-300.0,0.0,0.0
300.0,-300.0,0.0,0.0
300.0,-300.0,0.0,0.0
300.0,-300.0,0.0,0.0
300.0,-300.0,0.0,0.0
300.0,-300.0,0.0,0.0
300.0,-300.0,0.0,0.0
300.0,-300.0,0.0,0.0
300.0,-300.0,0.0,0.0
300.0,-300.0,0.0,0.0
300.0,-300.0,0.0,0.0
300.0,-300.0,0.0,0.0
300.0,-300.0,0.0,0.0
300.0,-300.0,0.0,0.0
300.0,-300.0,0.0,0.0
300.0,-300.0,0.0,0.0
300.0,-300.0,0.0,0.0
300.0,-300.0,0.0,0.0
300.0,-300.0,0.0,0.0
300.0,-300.0,0.0,0.0
300.0,-300.0,0.0,0.0
300.0,-300.0,0.0,0.0
300.0,-300.0,0.0,0.0
300.0,-300.0,0.0,0.0
300.0,-300.0,0.0,0.0
300.0,-300.0,0.0,0.0
300.0,-300.0,0.0,0.0
300.0,-300.0,0.0,0.0
300.0,-300.0,0.0,0.0
300.0,-300.0,0.0,0.0
300.0,-300.0,0.0,0.0
300.0,-300.0,0.0,0.0
300.0,-300.0,0.0,0.0
300.0,-300.0,0.0,0.0
300.0,-300.0,0.0,0.0
300.0,-300.0,0.0,0.0
300.0,-300.0,0.0,0.0
300.0,-300.0,0.0,0.0
300.0,-300.0,0.0,0.0
300.0,-300.0,0.0,0.0
300.0,-300.0,0.0,0.0
300.0,-300.0,0.0,0.0
300.0,-300.0,0.0,0.0
300.0,-300.0,0.0,0.0
300.0,-300.0,0.0,0.0
300.0,-300.0,0.0,0.0
300.0,-300.0,0.0,0.0
300.0,-300.0,0.0,0.0
300.0,-300.0,0.0,0.0
300.0,-300.0,0.0,0.0
300.0,-300.0,0.0,0.0
300.0,-300.0,0.0,0.0
300.0,-300.0,0.0,0.0
300.0,-300.0,0.0,0.0
300.0,-300.0,0.0,0.0
300.0,-300.0,0.0,0.0
300.0,-300.0,0.0,0.0
300.0,-300.0,0.0,0.0
300.0,-300.0,0.0,0.0
300.0,-300.0,0.0,0.0
300.0,-300.0,0.0,0.0
300.0,-300.0,0.0,0.0
300.0,-300.0,0.0,0.0
300.0,-300.0,0.0,0.0
300.0,-300.0,0.0,0.0
300.0,-300.0,0.0,0.0
300.0,-300.0,0.0,0.0
300.0,-300.0,0.0,0.0
300.0,-300.0,0.0,0.0
300.0,-300.0,0.0,0.0
300.0,-300.0,0.0,0.0
300.0,-300.0,0.0,0.0
300.0,-300.0,0.0,0.0
300.0,-300.0,0.0,0.0
300.0,-300.0,0.0,0.0
300.0,-300.0,0.0,0.0
300.0,-300.0,0.0,0.0
300.0,-300.0,0.0,0.0
300.0,-300.0,0.0,0.0
300.0,-300.0,0.0,0.0
300.0,-300.0,0.0,0.0
300.0,-300.0,-494.34,0.0
300.0,-300.0,-1166.28,0.0
300.0,-300.0,-2223.66,0.0
300.0,-300.0,-3719.63,0.0
300.0,-300.0,-5657.94,0.0
300.0,-300.0,-7992.13,0.0
300.0,-300.0,-10629.66,0.0
300.0,-300.0,-13433.29,0.0
300.0,-300.0,-16234.64,0.0
300.0,-300.0,-18804.71,0.0
300.0,-300.0,-20966.2,0.0
300.0,-300.0,-22557.88,0.0
300.0,-300.0,-23481.06,0.0
300.0,-300.0,-23714.14,0.0
300.0,-300.0,-23306.47,0.0
300.0,-300.0,-22379.66,0.0
300.0,-300.0,-21117.53,0.0
300.0,-300.0,-19750.42,0.0
300.0,-300.0,-18491.0,0.0
300.0,-300.0,-17621.95,0.0
300.0,-300.0,-17319.59,0.0
300.0,-300.0,-17706.66,0.0
300.0,-300.0,-18830.31,0.0
300.0,-300.0,-20662.59,0.0
300.0,-300.0,-23111.08,0.0
300.0,-300.0,-26042.65,0.0
300.0,-300.0,-29309.81,0.0
300.0,-300.0,-32767.35,0.0
300.0,-300.0,-36432.43,0.0
300.0,-300.0,-40030.99,0.0
300.0,-300.0,-43493.24,0.0
300.0,-300.0,-46711.62,0.0
300.0,-300.0,-49579.88,0.0
300.0,-300.0,-51988.09,0.0
300.0,-300.0,-53803.34,0.0
300.0,-300.0,-54879.5,0.0
300.0,-300.0,-55074.25,0.0
300.0,-300.0,-54262.61,0.0
300.0,-300.0,-52430.13,0.0
300.0,-300.0,-49512.27,0.0
300.0,-300.0,-45597.9,0.0
300.0,-300.0,-40824.08,0.0
300.0,-300.0,-35416.34,0.0
300.0,-300.0,-29648.1,0.0
300.0,-300.0,-23823.51,0.0
300.0,-300.0,-18234.95,0.0
300.0,-300.0,-13132.95,0.0
300.0,-300.0,-8749.48,0.0
300.0,-300.0,-5088.96,0.0
300.0,-300.0,-2133.93,0.0
300.0,-300.0,233.07,0.0
300.0,-300.0,2164.62,0.0
300.0,-300.0,3834.69,0.0
300.0,-300.0,5408.72,0.0
300.0,-300.0,6985.97,0.0
300.0,-300.0,8583.4,0.0
300.0,-300.0,10129.72,0.0
300.0,-300.0,11461.46,0.0
300.0,-300.0,12382.33,0.0
300.0,-300.0,12674.16,0.0
300.0,-300.0,12153.37,0.0
300.0,-300.0,10712.16,0.0
300.0,-300.0,8348.02,0.0
300.0,-300.0,5178.95,0.0
300.0,-300.0,1436.73,0.0
300.0,-300.0,-2557.04,0.0
300.0,-300.0,-6431.39,0.0
300.0,-300.0,-9818.07,0.0
300.0,-300.0,-12392.14,0.0
300.0,-300.0,-13924.82,0.0
300.0,-300.0,-14301.27,0.0
300.0,-300.0,-13533.03,0.0
300.0,-300.0,-11748.82,0.0
300.0,-300.0,-9167.28,0.0
300.0,-300.0,-6060.62,0.0
300.0,-300.0,-2713.47,0.0
300.0,-300.0,616.5,0.0
300.0,-300.0,3712.32,0.0
300.0,-300.0,6453.98,0.0
300.0,-300.0,8779.39,0.0
300.0,-300.0,10693.42,0.0
300.0,-300.0,12246.3,0.0
300.0,-300.0,13508.93,0.0
300.0,-300.0,14551.6,0.0
300.0,-300.0,15428.08,0.0
300.0,-300.0,16167.9,0.0
300.0,-300.0,16779.26,0.0
300.0,-300.0,17251.69,0.0
300.0,-300.0,17587.75,0.0
300.0,-300.0,17799.63,0.0
300.0,-300.0,17785.03,0.0
300.0,-300.0,18042.01,0.0
300.0,-300.0,18274.75,0.0
300.0,-300.0,18629.04,0.0
300.0,-300.0,19228.75,0.0
300.0,-300.0,20150.83,0.0
300.0,-300.0,21411.85,0.0
300.0,-300.0,22975.28,0.0
300.0,-300.0,24735.53,0.0
300.0,-300.0,26545.48,0.0
300.0,-300.0,28176.92,0.0
300.0,-300.0,29439.76,0.0
300.0,-300.0,30157.96,0.0
300.0,-300.0,30215.98,0.0
300.0,-300.0,29573.24,0.0
300.0,-300.0,28266.07,0.0
300.0,-300.0,26405.65,0.0
300.0,-300.0,24171.92,0.0
300.0,-300.0,21796.04,0.0
300.0,-300.0,19472.64,0.0
300.0,-300.0,17455.21,0.0
300.0,-300.0,15889.37,0.0
300.0,-300.0,14850.75,0.0
300.0,-300.0,14347.24,0.0
300.0,-300.0,14324.95,0.0
300.0,-300.0,14679.0,0.0
300.0,-300.0,15269.9,0.0
300.0,-300.0,15951.63,0.0
300.0,-300.0,16538.59,0.0
300.0,-300.0,17056.38,0.0
300.0,-300.0,17264.67,0.0
300.0,-300.0,17131.35,0.0
300.0,-300.0,16675.24,0.0
300.0,-300.0,15954.81,0.0
300.0,-300.0,15056.52,0.0
300.0,-300.0,14063.33,0.0
300.0,-300.0,13046.12,0.0
300.0,-300.0,12065.96,0.0
300.0,-300.0,11146.25,0.0
300.0,-300.0,10370.96,0.0
300.0,-300.0,9692.7,0.0
300.0,-300.0,9115.55,0.0
300.0,-300.0,8615.66,0.0
300.0,-300.0,8177.25,0.0
300.0,-300.0,7777.7,0.0
300.0,-300.0,7399.44,0.0
300.0,-300.0,7025.75,0.0
300.0,-300.0,6629.72,0.0
300.0,-300.0,6268.64,0.0
300.0,-300.0,5877.51,0.0
300.0,-300.0,5466.04,0.0
300.0,-300.0,5049.32,0.0
300.0,-300.0,4660.09,0.0
300.0,-300.0,4321.95,0.0
300.0,-300.0,4032.93,0.0
300.0,-300.0,3789.31,0.0
300.0,-300.0,3585.11,0.0
300.0,-300.0,3408.82,0.0
300.0,-300.0,3262.76,0.0
300.0,-300.0,3131.56,0.0
300.0,-300.0,3007.79,0.0
300.0,-300.0,2886.37,0.0
300.0,-300.0,2761.64,0.0
300.0,-300.0,2630.06,0.0
300.0,-300.0,2488.59,0.0
300.0,-300.0,2336.82,0.0
300.0,-300.0,2174.41,0.0
300.0,-300.0,2001.4,0.0
300.0,-300.0,1823.25,0.0
300.0,-300.0,1639.37,0.0
300.0,-300.0,1455.07,0.0
300.0,-300.0,1272.57,0.0
300.0,-300.0,1093.53,0.0
300.0,-300.0,919.19,0.0
300.0,-300.0,751.65,0.0
300.0,-300.0,591.83,0.0
300.0,-300.0,441.71,0.0
300.0,-300.0,298.18,0.0
300.0,-300.0,175.62,0.0
300.0,-300.0,63.09,0.0
300.0,-300.0,-37.37,0.0
300.0,-300.0,-124.4,0.0
300.0,-300.0,-196.61,0.0
300.0,-300.0,-254.72,0.0
300.0,-300.0,-299.35,0.0
300.0,-300.0,-331.59,0.0
300.0,-300.0,-354.71,0.0
300.0,-300.0,-371.56,0.0
300.0,-300.0,-379.8,0.0
300.0,-300.0,-386.41,0.0
300.0,-300.0,-394.13,0.0
300.0,-300.0,-403.74,0.0
300.0,-300.0,-416.99,0.0
300.0,-300.0,-435.2,0.0
300.0,-300.0,-459.34,0.0
300.0,-300.0,-491.59,0.0
300.0,-300.0,-532.69,0.0
300.0,-300.0,-580.68,0.0
300.0,-300.0,-638.08,0.0
300.0,-300.0,-703.91,0.0
300.0,-300.0,-777.25,0.0
300.0,-300.0,-856.53,0.0
300.0,-300.0,-941.64,0.0
300.0,-300.0,-1028.45,0.0
300.0,-300.0,-1119.45,0.0
300.0,-300.0,-1212.92,0.0
300.0,-300.0,-1308.82,0.0
300.0,-300.0,-1405.35,0.0
300.0,-300.0,-1504.12,0.0
300.0,-300.0,-1603.48,0.0
300.0,-300.0,-1702.58,0.0
300.0,-300.0,-1800.49,0.0
300.0,-300.0,-1895.43,0.0
300.0,-300.0,-1985.22,0.0
300.0,-300.0,-2069.13,0.0
300.0,-300.0,-2143.68,0.0
300.0,-300.0,-2208.71,0.0
300.0,-300.0,-2261.48,0.0
300.0,-300.0,-2303.31,0.0
300.0,-300.0,-2333.47,0.0
300.0,-300.0,-2352.77,0.0
300.0,-300.0,-2362.68,0.0
300.0,-300.0,-2364.24,0.0
300.0,-300.0,-2359.53,0.0
300.0,-300.0,-2349.41,0.0
300.0,-300.0,-2335.94,0.0
300.0,-300.0,-2319.58,0.0
300.0,-300.0,-2301.34,0.0
300.0,-300.0,-2281.45,0.0
300.0,-300.0,-2261.25,0.0
300.0,-300.0,-2240.88,0.0
300.0,-300.0,-2220.84,0.0
300.0,-300.0,-2201.91,0.0
300.0,-300.0,-2184.62,0.0
300.0,-300.0,-2167.62,0.0
300.0,-300.0,-2152.84,0.0
300.0,-300.0,-2139.01,0.0
300.0,-300.0,-2125.71,0.0
300.0,-300.0,-2110.98,0.0
300.0,-300.0,-2094.41,0.0
300.0,-300.0,-2073.58,0.0
300.0,-300.0,-2047.82,0.0
300.0,-300.0,-2015.98,0.0
300.0,-300.0,-1977.53,0.0
300.0,-300.0,-1933.08,0.0
300.0,-300.0,-1884.27,0.0
300.0,-300.0,-1832.46,0.0
300.0,-300.0,-1780.25,0.0
300.0,-300.0,-1729.41,0.0
300.0,-300.0,-1682.38,0.0
300.0,-300.0,-1640.1,0.0
300.0,-300.0,-1603.65,0.0
300.0,-300.0,-1572.4,0.0
300.0,-300.0,-1545.83,0.0
300.0,-300.0,-1521.12,0.0
300.0,-300.0,-1496.53,0.0
300.0,-300.0,-1470.18,0.0
300.0,-300.0,-1440.18,0.0
300.0,-300.0,-1404.45,0.0
300.0,-300.0,-1363.36,0.0
300.0,-300.0,-1317.28,0.0
300.0,-300.0,-1267.85,0.0
300.0,-300.0,-1216.4,0.0
300.0,-300.0,-1166.68,0.0
300.0,-300.0,-1119.04,0.0
300.0,-300.0,-1076.91,0.0
300.0,-300.0,-1041.07,0.0
300.0,-300.0,-1012.63,0.0
300.0,-300.0,-991.61,0.0
300.0,-300.0,-978.44,0.0
300.0,-300.0,-972.24,0.0
300.0,-300.0,-973.37,0.0
300.0,-300.0,-980.61,0.0
300.0,-300.0,-994.75,0.0
300.0,-300.0,-1016.21,0.0
300.0,-300.0,-1045.4,0.0
300.0,-300.0,-1083.5,0.0
300.0,-300.0,-1129.82,0.0
300.0,-300.0,-1185.62,0.0
300.0,-300.0,-1250.08,0.0
300.0,-300.0,-1322.23,0.0
300.0,-300.0,-1400.23,0.0
300.0,-300.0,-1482.23,0.0
300.0,-300.0,-1565.52,0.0
300.0,-300.0,-1647.95,0.0
300.0,-300.0,-1727.72,0.0
300.0,-300.0,-1801.92,0.0
300.0,-300.0,-1870.33,0.0
300.0,-300.0,-1931.51,0.0
300.0,-300.0,-1985.89,0.0
300.0,-300.0,-2033.19,0.0
300.0,-300.0,-2074.12,0.0
300.0,-300.0,-2108.79,0.0
300.0,-300.0,-2137.78,0.0
300.0,-300.0,-2161.01,0.0
300.0,-300.0,-2177.68,0.0
300.0,-300.0,-2187.84,0.0
300.0,-300.0,-2191.4,0.0
300.0,-300.0,-2187.62,0.0
300.0,-300.0,-2177.07,0.0
300.0,-300.0,-2160.71,0.0
300.0,-300.0,-2139.67,0.0
300.0,-300.0,-2116.63,0.0
300.0,-300.0,-2093.2,0.0
300.0,-300.0,-2072.13,0.0
300.0,-300.0,-2054.68,0.0
300.0,-300.0,-2043.62,0.0
300.0,-300.0,-2038.93,0.0
300.0,-300.0,-2039.64,0.0
300.0,-300.0,-2044.19,0.0
300.0,-300.0,-2050.18,0.0
300.0,-300.0,-2054.72,0.0
300.0,-300.0,-2052.7,0.0
300.0,-300.0,-2042.83,0.0
300.0,-300.0,-2022.3,0.0
300.0,-300.0,-1990.49,0.0
300.0,-300.0,-1946.92,0.0
300.0,-300.0,-1894.22,0.0
300.0,-300.0,-1834.26,0.0
300.0,-300.0,-1771.32,0.0
300.0,-300.0,-1708.51,0.0
300.0,-300.0,-1649.93,0.0
300.0,-300.0,-1597.51,0.0
300.0,-300.0,-1553.74,0.0
300.0,-300.0,-1517.67,0.0
300.0,-300.0,-1490.55,0.0
300.0,-300.0,-1468.25,0.0
300.0,-300.0,-1448.6,0.0
300.0,-300.0,-1428.49,0.0
300.0,-300.0,-1405.55,0.0
300.0,-300.0,-1377.05,0.0
300.0,-300.0,-1342.78,0.0
300.0,-300.0,-1301.02,0.0
300.0,-300.0,-1254.17,0.0
300.0,-300.0,-1203.67,0.0
300.0,-300.0,-1151.44,0.0
300.0,-300.0,-1099.81,0.0
300.0,-300.0,-1051.74,0.0
300.0,-300.0,-1008.32,0.0
300.0,-300.0,-971.25,0.0
300.0,-300.0,-940.49,0.0
300.0,-300.0,-917.18,0.0
300.0,-300.0,-900.34,0.0
300.0,-300.0,-890.62,0.0
300.0,-300.0,-886.67,0.0
300.0,-300.0,-889.91,0.0
300.0,-300.0,-900.28,0.0
300.0,-300.0,-919.08,0.0
300.0,-300.0,-946.78,0.0
300.0,-300.0,-985.11,0.0
300.0,-300.0,-1034.0,0.0
300.0,-300.0,-1093.78,0.0
300.0,-300.0,-1164.34,0.0
300.0,-300.0,-1243.97,0.0
300.0,-300.0,-1329.82,0.0
300.0,-300.0,-1420.72,0.0
300.0,-300.0,-1512.99,0.0
300.0,-300.0,-1604.06,0.0
300.0,-300.0,-1691.12,0.0
300.0,-300.0,-1772.86,0.0
300.0,-300.0,-1847.36,0.0
300.0,-300.0,-1914.76,0.0
300.0,-300.0,-1974.43,0.0
300.0,-300.0,-2027.33,0.0
300.0,-300.0,-2073.59,0.0
300.0,-300.0,-2113.51,0.0
300.0,-300.0,-2147.5,0.0
300.0,-300.0,-2175.17,0.0
300.0,-300.0,-2196.81,0.0
300.0,-300.0,-2211.33,0.0
300.0,-300.0,-2218.45,0.0
300.0,-300.0,-2217.9,0.0
300.0,-300.0,-2209.87,0.0
300.0,-300.0,-2195.87,0.0
300.0,-300.0,-2177.13,0.0
300.0,-300.0,-2155.83,0.0
300.0,-300.0,-2134.55,0.0
300.0,-300.0,-2116.17,0.0
300.0,-300.0,-2102.36,0.0
300.0,-300.0,-2095.63,0.0
300.0,-300.0,-2095.56,0.0
300.0,-300.0,-2099.88,0.0
300.0,-300.0,-2108.28,0.0
300.0,-300.0,-2117.19,0.0
300.0,-300.0,-2122.65,0.0
300.0,-300.0,-2121.84,0.0
300.0,-300.0,-2111.35,0.0
300.0,-300.0,-2088.96,0.0
300.0,-300.0,-2053.75,0.0
300.0,-300.0,-2006.22,0.0
300.0,-300.0,-1948.29,0.0
300.0,-300.0,-1882.96,0.0
300.0,-300.0,-1814.63,0.0
300.0,-300.0,-1746.57,0.0
300.0,-300.0,-1683.45,0.0
300.0,-300.0,-1627.95,0.0
300.0,-300.0,-1581.85,0.0
300.0,-300.0,-1545.21,0.0
300.0,-300.0,-1517.56,0.0
300.0,-300.0,-1496.38,0.0
300.0,-300.0,-1479.37,0.0
300.0,-300.0,-1463.23,0.0
300.0,-300.0,-1444.0,0.0
300.0,-300.0,-1421.11,0.0
300.0,-300.0,-1391.61,0.0
300.0,-300.0,-1355.14,0.0
300.0,-300.0,-1312.48,0.0
300.0,-300.0,-1265.3,0.0
300.0,-300.0,-1215.56,0.0
300.0,-300.0,-1165.6,0.0
300.0,-300.0,-1117.55,0.0
300.0,-300.0,-1072.94,0.0
300.0,-300.0,-1033.27,0.0
300.0,-300.0,-999.81,0.0
300.0,-300.0,-972.26,0.0
300.0,-300.0,-950.83,0.0
300.0,-300.0,-935.88,0.0
300.0,-300.0,-927.41,0.0
300.0,-300.0,-925.96,0.0
300.0,-300.0,-931.92,0.0
300.0,-300.0,-946.56,0.0
300.0,-300.0,-970.5,0.0
300.0,-300.0,-1005.07,0.0
300.0,-300.0,-1051.54,0.0
300.0,-300.0,-1108.77,0.0
300.0,-300.0,-1176.55,0.0
300.0,-300.0,-1253.87,0.0
300.0,-300.0,-1338.19,0.0
300.0,-300.0,-1427.22,0.0
300.0,-300.0,-1517.86,0.0
300.0,-300.0,-1607.57,0.0
300.0,-300.0,-1693.79,0.0
300.0,-300.0,-1774.42,0.0
300.0,-300.0,-1848.32,0.0
300.0,-300.0,-1914.67,0.0
300.0,-300.0,-1973.78,0.0
300.0,-300.0,-2025.98,0.0
300.0,-300.0,-2071.71,0.0
300.0,-300.0,-2111.49,0.0
300.0,-300.0,-2145.65,0.0
300.0,-300.0,-2174.76,0.0
300.0,-300.0,-2197.52,0.0
300.0,-300.0,-2214.28,0.0
300.0,-300.0,-2223.29,0.0
300.0,-300.0,-2225.67,0.0
300.0,-300.0,-2220.58,0.0
300.0,-300.0,-2209.16,0.0
300.0,-300.0,-2192.59,0.0
300.0,-300.0,-2173.15,0.0
300.0,-300.0,-2153.27,0.0
300.0,-300.0,-2135.8,0.0
300.0,-300.0,-2122.5,0.0
300.0,-300.0,-2115.12,0.0
300.0,-300.0,-2114.26,0.0
300.0,-300.0,-2119.17,0.0
300.0,-300.0,-2128.29,0.0
300.0,-300.0,-2138.81,0.0
300.0,-300.0,-2147.12,0.0
300.0,-300.0,-2149.96,0.0
300.0,-300.0,-2143.59,0.0
300.0,-300.0,-2124.76,0.0
300.0,-300.0,-2093.5,0.0
300.0,-300.0,-2049.96,0.0
300.0,-300.0,-1995.56,0.0
300.0,-300.0,-1932.98,0.0
300.0,-300.0,-1866.25,0.0
300.0,-300.0,-1799.88,0.0
300.0,-300.0,-1736.88,0.0
300.0,-300.0,-1681.18,0.0
300.0,-300.0,-1634.2,0.0
300.0,-300.0,-1595.78,0.0
300.0,-300.0,-1565.49,0.0
300.0,-300.0,-1543.03,0.0
300.0,-300.0,-1523.24,0.0
300.0,-300.0,-1503.76,0.0
300.0,-300.0,-1481.19,0.0
300.0,-300.0,-1453.52,0.0
300.0,-300.0,-1419.14,0.0
300.0,-300.0,-1377.87,0.0
300.0,-300.0,-1329.79,0.0
300.0,-300.0,-1277.56,0.0
300.0,-300.0,-1222.33,0.0
300.0,-300.0,-1167.14,0.0
300.0,-300.0,-1113.87,0.0
300.0,-300.0,-1065.19,0.0
300.0,-300.0,-1021.82,0.0
300.0,-300.0,-985.58,0.0
300.0,-300.0,-956.2,0.0
300.0,-300.0,-934.16,0.0
300.0,-300.0,-919.83,0.0
300.0,-300.0,-912.89,0.0
300.0,-300.0,-913.46,0.0
300.0,-300.0,-922.39,0.0
300.0,-300.0,-940.63,0.0
300.0,-300.0,-968.9,0.0
300.0,-300.0,-1007.99,0.0
300.0,-300.0,-1058.28,0.0
300.0,-300.0,-1119.53,0.0
300.0,-300.0,-1191.03,0.0
300.0,-300.0,-1271.76,0.0
300.0,-300.0,-1358.99,0.0
300.0,-300.0,-1450.09,0.0
300.0,-300.0,-1542.79,0.0
300.0,-300.0,-1633.46,0.0
300.0,-300.0,-1720.56,0.0
300.0,-300.0,-1801.39,0.0
300.0,-300.0,-1875.63,0.0
300.0,-300.0,-1942.08,0.0
300.0,-300.0,-2001.44,0.0
300.0,-300.0,-2053.28,0.0
300.0,-300.0,-2099.35,0.0
300.0,-300.0,-2138.98,0.0
300.0,-300.0,-2173.87,0.0
300.0,-300.0,-2202.48,0.0
300.0,-300.0,-2225.28,0.0
300.0,-300.0,-2241.63,0.0
300.0,-300.0,-2251.4,0.0
300.0,-300.0,-2253.54,0.0
300.0,-300.0,-2248.93,0.0
300.0,-300.0,-2237.05,0.0
300.0,-300.0,-2221.0,0.0
300.0,-300.0,-2201.6,0.0
300.0,-300.0,-2181.72,0.0
300.0,-300.0,-2163.62,0.0
300.0,-300.0,-2149.64,0.0
300.0,-300.0,-2140.97,0.0
300.0,-300.0,-2138.58,0.0
300.0,-300.0,-2141.3,0.0
300.0,-300.0,-2144.46,0.0
300.0,-300.0,-2147.88,0.0
300.0,-300.0,-2147.3,0.0
300.0,-300.0,-2137.92,0.0
300.0,-300.0,-2118.61,0.0
300.0,-300.0,-2086.47,0.0
300.0,-300.0,-2041.03,0.0
300.0,-300.0,-1983.01,0.0
300.0,-300.0,-1915.69,0.0
300.0,-300.0,-1841.95,0.0
300.0,-300.0,-1767.13,0.0
300.0,-300.0,-1694.33,0.0
300.0,-300.0,-1628.79,0.0
300.0,-300.0,-1572.41,0.0
300.0,-300.0,-1527.38,0.0
300.0,-300.0,-1492.98,0.0
300.0,-300.0,-1467.91,0.0
300.0,-300.0,-1448.88,0.0
300.0,-300.0,-1432.54,0.0
300.0,-300.0,-1415.04,0.0
300.0,-300.0,-1393.95,0.0
300.0,-300.0,-1365.64,0.0
300.0,-300.0,-1329.64,0.0
300.0,-300.0,-1286.81,0.0
300.0,-300.0,-1237.18,0.0
300.0,-300.0,-1182.91,0.0
300.0,-300.0,-1127.48,0.0
300.0,-300.0,-1072.76,0.0
300.0,-300.0,-1021.81,0.0
300.0,-300.0,-975.65,0.0
300.0,-300.0,-935.64,0.0
300.0,-300.0,-902.22,0.0
300.0,-300.0,-875.28,0.0
300.0,-300.0,-855.04,0.0
300.0,-300.0,-840.64,0.0
300.0,-300.0,-832.68,0.0
300.0,-300.0,-832.3,0.0
300.0,-300.0,-840.47,0.0
300.0,-300.0,-859.12,0.0
300.0,-300.0,-890.01,0.0
300.0,-300.0,-934.09,0.0
300.0,-300.0,-992.72,0.0
300.0,-300.0,-1066.23,0.0
300.0,-300.0,-1152.62,0.0
300.0,-300.0,-1250.59,0.0
300.0,-300.0,-1356.46,0.0
300.0,-300.0,-1467.58,0.0
300.0,-300.0,-1579.22,0.0
300.0,-300.0,-1688.94,0.0
300.0,-300.0,-1793.03,0.0
300.0,-300.0,-1889.99,0.0
300.0,-300.0,-1978.72,0.0
300.0,-300.0,-2057.78,0.0
300.0,-300.0,-2128.79,0.0
300.0,-300.0,-2191.94,0.0
300.0,-300.0,-2247.8,0.0
300.0,-300.0,-2296.88,0.0
300.0,-300.0,-2338.86,0.0
300.0,-300.0,-2373.61,0.0
300.0,-300.0,-2400.37,0.0
300.0,-300.0,-2417.73,0.0
300.0,-300.0,-2425.38,0.0
300.0,-300.0,-2422.13,0.0
300.0,-300.0,-2409.14,0.0
300.0,-300.0,-2387.84,0.0
300.0,-300.0,-2359.9,0.0
300.0,-300.0,-2329.06,0.0
300.0,-300.0,-2298.14,0.0
300.0,-300.0,-2271.25,0.0
300.0,-300.0,-2251.3,0.0
300.0,-300.0,-2240.16,0.0
300.0,-300.0,-2238.37,0.0
300.0,-300.0,-2244.76,0.0
300.0,-300.0,-2257.04,0.0
300.0,-300.0,-2270.98,0.0
300.0,-300.0,-2282.43,0.0
300.0,-300.0,-2286.31,0.0
300.0,-300.0,-2278.87,0.0
300.0,-300.0,-2256.29,0.0
300.0,-300.0,-2215.63,0.0
300.0,-300.0,-2159.46,0.0
300.0,-300.0,-2088.37,0.0
300.0,-300.0,-2006.94,0.0
300.0,-300.0,-1918.86,0.0
300.0,-300.0,-1830.25,0.0
300.0,-300.0,-1746.01,0.0
300.0,-300.0,-1670.49,0.0
300.0,-300.0,-1606.58,0.0
300.0,-300.0,-1555.33,0.0
300.0,-300.0,-1516.7,0.0
300.0,-300.0,-1487.63,0.0
300.0,-300.0,-1467.81,0.0
300.0,-300.0,-1450.31,0.0
300.0,-300.0,-1431.68,0.0
300.0,-300.0,-1408.79,0.0
300.0,-300.0,-1378.96,0.0
300.0,-300.0,-1340.84,0.0
300.0,-300.0,-1294.79,0.0
300.0,-300.0,-1241.94,0.0
300.0,-300.0,-1183.68,0.0
300.0,-300.0,-1123.28,0.0
300.0,-300.0,-1062.56,0.0
300.0,-300.0,-1005.12,0.0
300.0,-300.0,-952.55,0.0
300.0,-300.0,-906.09,0.0
300.0,-300.0,-866.79,0.0
300.0,-300.0,-834.67,0.0
300.0,-300.0,-809.77,0.0
300.0,-300.0,-792.82,0.0
300.0,-300.0,-782.93,0.0
300.0,-300.0,-781.08,0.0
300.0,-300.0,-787.68,0.0
300.0,-300.0,-804.95,0.0
300.0,-300.0,-833.56,0.0
300.0,-300.0,-874.87,0.0
300.0,-300.0,-929.82,0.0
300.0,-300.0,-998.2,0.0
300.0,-300.0,-1079.33,0.0
300.0,-300.0,-1171.3,0.0
300.0,-300.0,-1272.42,0.0
300.0,-300.0,-1378.55,0.0
300.0,-300.0,-1487.3,0.0
300.0,-300.0,-1594.15,0.0
300.0,-300.0,-1696.82,0.0
300.0,-300.0,-1792.98,0.0
300.0,-300.0,-1881.29,0.0
300.0,-300.0,-1960.81,0.0
300.0,-300.0,-2032.18,0.0
300.0,-300.0,-2095.09,0.0
300.0,-300.0,-2151.34,0.0
300.0,-300.0,-2200.78,0.0
300.0,-300.0,-2244.17,0.0
300.0,-300.0,-2280.89,0.0
300.0,-300.0,-2310.65,0.0
300.0,-300.0,-2332.43,0.0
300.0,-300.0,-2345.22,0.0
300.0,-300.0,-2348.58,0.0
300.0,-300.0,-2342.22,0.0
300.0,-300.0,-2327.09,0.0
300.0,-300.0,-2305.03,0.0
300.0,-300.0,-2278.07,0.0
300.0,-300.0,-2249.77,0.0
300.0,-300.0,-2223.16,0.0
300.0,-300.0,-2201.81,0.0
300.0,-300.0,-2187.74,0.0
300.0,-300.0,-2182.6,0.0
300.0,-300.0,-2185.84,0.0
300.0,-300.0,-2194.47,0.0
300.0,-300.0,-2206.22,0.0
300.0,-300.0,-2216.76,0.0
300.0,-300.0,-2220.94,0.0
300.0,-300.0,-2215.43,0.0
300.0,-300.0,-2196.23,0.0
300.0,-300.0,-2161.83,0.0
300.0,-300.0,-2111.85,0.0
300.0,-300.0,-2047.83,0.0
300.0,-300.0,-1973.22,0.0
300.0,-300.0,-1892.87,0.0
300.0,-300.0,-1811.32,0.0
300.0,-300.0,-1734.15,0.0
300.0,-300.0,-1665.33,0.0
300.0,-300.0,-1608.12,0.0
300.0,-300.0,-1563.27,0.0
300.0,-300.0,-1531.27,0.0
300.0,-300.0,-1508.67,0.0
300.0,-300.0,-1493.08,0.0
300.0,-300.0,-1479.82,0.0
300.0,-300.0,-1464.72,0.0
300.0,-300.0,-1444.42,0.0
300.0,-300.0,-1416.29,0.0
300.0,-300.0,-1379.95,0.0
300.0,-300.0,-1333.65,0.0
300.0,-300.0,-1279.65,0.0
300.0,-300.0,-1220.4,0.0
300.0,-300.0,-1158.41,0.0
300.0,-300.0,-1097.11,0.0
300.0,-300.0,-1038.9,0.0
300.0,-300.0,-984.98,0.0
300.0,-300.0,-937.56,0.0
300.0,-300.0,-897.23,0.0
300.0,-300.0,-862.93,0.0
300.0,-300.0,-835.64,0.0
300.0,-300.0,-814.51,0.0
300.0,-300.0,-800.5,0.0
300.0,-300.0,-793.67,0.0
300.0,-300.0,-795.77,0.0
300.0,-300.0,-808.3,0.0
300.0,-300.0,-833.22,0.0
300.0,-300.0,-871.85,0.0
300.0,-300.0,-924.97,0.0
300.0,-300.0,-993.55,0.0
300.0,-300.0,-1076.07,0.0
300.0,-300.0,-1170.92,0.0
300.0,-300.0,-1275.02,0.0
300.0,-300.0,-1384.82,0.0
300.0,-300.0,-1496.61,0.0
300.0,-300.0,-1607.56,0.0
300.0,-300.0,-1713.45,0.0
300.0,-300.0,-1812.34,0.0
300.0,-300.0,-1902.4,0.0
300.0,-300.0,-1983.71,0.0
300.0,-300.0,-2056.63,0.0
300.0,-300.0,-2121.18,0.0
300.0,-300.0,-2178.96,0.0
300.0,-300.0,-2229.92,0.0
300.0,-300.0,-2275.13,0.0
300.0,-300.0,-2314.51,0.0
300.0,-300.0,-2347.06,0.0
300.0,-300.0,-2371.69,0.0
300.0,-300.0,-2388.46,0.0
300.0,-300.0,-2394.92,0.0
300.0,-300.0,-2392.39,0.0
300.0,-300.0,-2380.97,0.0
300.0,-300.0,-2363.01,0.0
300.0,-300.0,-2340.3,0.0
300.0,-300.0,-2316.53,0.0
300.0,-300.0,-2294.64,0.0
300.0,-300.0,-2278.35,0.0
300.0,-300.0,-2269.34,0.0
300.0,-300.0,-2269.81,0.0
300.0,-300.0,-2278.93,0.0
300.0,-300.0,-2295.41,0.0
300.0,-300.0,-2316.34,0.0
300.0,-300.0,-2337.46,0.0
300.0,-300.0,-2354.01,0.0
300.0,-300.0,-2361.69,0.0
300.0,-300.0,-2351.94,0.0
300.0,-300.0,-2326.09,0.0
300.0,-300.0,-2280.74,0.0
300.0,-300.0,-2216.36,0.0
300.0,-300.0,-2135.44,0.0
300.0,-300.0,-2042.2,0.0
300.0,-300.0,-1941.68,0.0
300.0,-300.0,-1840.46,0.0
300.0,-300.0,-1744.21,0.0
300.0,-300.0,-1658.29,0.0
300.0,-300.0,-1586.5,0.0
300.0,-300.0,-1530.48,0.0
300.0,-300.0,-1491.68,0.0
300.0,-300.0,-1467.28,0.0
300.0,-300.0,-1453.5,0.0
300.0,-300.0,-1446.08,0.0
300.0,-300.0,-1439.57,0.0
300.0,-300.0,-1429.67,0.0
300.0,-300.0,-1412.1,0.0
300.0,-300.0,-1384.44,0.0
300.0,-300.0,-1345.78,0.0
300.0,-300.0,-1295.91,0.0
300.0,-300.0,-1236.59,0.0
300.0,-300.0,-1171.14,0.0
300.0,-300.0,-1102.42,0.0
300.0,-300.0,-1033.8,0.0
300.0,-300.0,-968.31,0.0
300.0,-300.0,-908.32,0.0
300.0,-300.0,-854.77,0.0
300.0,-300.0,-808.62,0.0
300.0,-300.0,-769.4,0.0
300.0,-300.0,-737.06,0.0
300.0,-300.0,-711.47,0.0
300.0,-300.0,-692.58,0.0
300.0,-300.0,-680.91,0.0
300.0,-300.0,-678.22,0.0
300.0,-300.0,-686.63,0.0
300.0,-300.0,-707.77,0.0
300.0,-300.0,-743.66,0.0
300.0,-300.0,-795.98,0.0
300.0,-300.0,-864.6,0.0
300.0,-300.0,-949.5,0.0
300.0,-300.0,-1048.92,0.0
300.0,-300.0,-1158.77,0.0
300.0,-300.0,-1275.47,0.0
300.0,-300.0,-1395.12,0.0
300.0,-300.0,-1513.24,0.0
300.0,-300.0,-1626.41,0.0
300.0,-300.0,-1732.0,0.0
300.0,-300.0,-1828.85,0.0
300.0,-300.0,-1916.58,0.0
300.0,-300.0,-1995.46,0.0
300.0,-300.0,-2066.94,0.0
300.0,-300.0,-2131.72,0.0
300.0,-300.0,-2191.28,0.0
300.0,-300.0,-2245.21,0.0
300.0,-300.0,-2293.32,0.0
300.0,-300.0,-2333.97,0.0
300.0,-300.0,-2365.75,0.0
300.0,-300.0,-2387.23,0.0
300.0,-300.0,-2396.78,0.0
300.0,-300.0,-2393.73,0.0
300.0,-300.0,-2379.29,0.0
300.0,-300.0,-2355.81,0.0
300.0,-300.0,-2325.83,0.0
300.0,-300.0,-2293.54,0.0
300.0,-300.0,-2263.45,0.0
300.0,-300.0,-2239.64,0.0
300.0,-300.0,-2225.0,0.0
300.0,-300.0,-2222.52,0.0
300.0,-300.0,-2231.31,0.0
300.0,-300.0,-2249.43,0.0
300.0,-300.0,-2274.13,0.0
300.0,-300.0,-2300.55,0.0
300.0,-300.0,-2322.82,0.0
300.0,-300.0,-2335.91,0.0
300.0,-300.0,-2334.87,0.0
300.0,-300.0,-2316.25,0.0
300.0,-300.0,-2278.23,0.0
300.0,-300.0,-2219.09,0.0
300.0,-300.0,-2143.88,0.0
300.0,-300.0,-2055.46,0.0
300.0,-300.0,-1959.04,0.0
300.0,-300.0,-1860.9,0.0
300.0,-300.0,-1766.8,0.0
300.0,-300.0,-1682.17,0.0
300.0,-300.0,-1610.96,0.0
300.0,-300.0,-1555.67,0.0
300.0,-300.0,-1517.25,0.0
300.0,-300.0,-1492.63,0.0
300.0,-300.0,-1479.9,0.0
300.0,-300.0,-1478.02,0.0
300.0,-300.0,-1478.47,0.0
300.0,-300.0,-1477.3,0.0
300.0,-300.0,-1470.91,0.0
300.0,-300.0,-1455.64,0.0
300.0,-300.0,-1430.27,0.0
300.0,-300.0,-1393.45,0.0
300.0,-300.0,-1345.97,0.0
300.0,-300.0,-1289.44,0.0
300.0,-300.0,-1226.33,0.0
300.0,-300.0,-1159.4,0.0
300.0,-300.0,-1092.12,0.0
300.0,-300.0,-1026.82,0.0
300.0,-300.0,-966.05,0.0
300.0,-300.0,-911.1,0.0
300.0,-300.0,-863.32,0.0
300.0,-300.0,-822.88,0.0
300.0,-300.0,-791.13,0.0
300.0,-300.0,-767.11,0.0
300.0,-300.0,-752.1,0.0
300.0,-300.0,-745.96,0.0
300.0,-300.0,-751.1,0.0
300.0,-300.0,-767.78,0.0
300.0,-300.0,-797.78,0.0
300.0,-300.0,-841.94,0.0
300.0,-300.0,-901.1,0.0
300.0,-300.0,-974.76,0.0
300.0,-300.0,-1062.68,0.0
300.0,-300.0,-1161.85,0.0
300.0,-300.0,-1269.84,0.0
300.0,-300.0,-1382.81,0.0
300.0,-300.0,-1497.49,0.0
300.0,-300.0,-1609.9,0.0
300.0,-300.0,-1717.16,0.0
300.0,-300.0,-1817.01,0.0
300.0,-300.0,-1908.34,0.0
300.0,-300.0,-1990.41,0.0
300.0,-300.0,-2063.9,0.0
300.0,-300.0,-2129.58,0.0
300.0,-300.0,-2188.1,0.0
300.0,-300.0,-2240.66,0.0
300.0,-300.0,-2286.63,0.0
300.0,-300.0,-2325.92,0.0
300.0,-300.0,-2357.97,0.0
300.0,-300.0,-2381.34,0.0
300.0,-300.0,-2395.27,0.0
300.0,-300.0,-2398.37,0.0
300.0,-300.0,-2390.8,0.0
300.0,-300.0,-2374.45,0.0
300.0,-300.0,-2350.77,0.0
300.0,-300.0,-2322.99,0.0
300.0,-300.0,-2294.68,0.0
300.0,-300.0,-2269.64,0.0
300.0,-300.0,-2251.98,0.0
300.0,-300.0,-2243.16,0.0
300.0,-300.0,-2245.01,0.0
300.0,-300.0,-2253.67,0.0
300.0,-300.0,-2268.76,0.0
300.0,-300.0,-2285.28,0.0
300.0,-300.0,-2297.8,0.0
300.0,-300.0,-2301.53,0.0
300.0,-300.0,-2291.57,0.0
300.0,-300.0,-2265.12,0.0
300.0,-300.0,-2220.26,0.0
300.0,-300.0,-2157.67,0.0
300.0,-300.0,-2080.53,0.0
300.0,-300.0,-1993.09,0.0
300.0,-300.0,-1901.04,0.0
300.0,-300.0,-1810.67,0.0
300.0,-300.0,-1726.49,0.0
300.0,-300.0,-1653.83,0.0
300.0,-300.0,-1594.7,0.0
300.0,-300.0,-1549.17,0.0
300.0,-300.0,-1516.39,0.0
300.0,-300.0,-1492.43,0.0
300.0,-300.0,-1473.49,0.0
300.0,-300.0,-1455.13,0.0
300.0,-300.0,-1432.65,0.0
300.0,-300.0,-1402.45,0.0
300.0,-300.0,-1365.09,0.0
300.0,-300.0,-1317.43,0.0
300.0,-300.0,-1261.3,0.0
300.0,-300.0,-1199.42,0.0
300.0,-300.0,-1135.05,0.0
300.0,-300.0,-1071.13,0.0
300.0,-300.0,-1010.94,0.0
300.0,-300.0,-955.74,0.0
300.0,-300.0,-908.09,0.0
300.0,-300.0,-867.11,0.0
300.0,-300.0,-834.78,0.0
300.0,-300.0,-808.21,0.0
300.0,-300.0,-787.99,0.0
300.0,-300.0,-774.05,0.0
300.0,-300.0,-766.68,0.0
300.0,-300.0,-766.97,0.0
300.0,-300.0,-777.25,0.0
300.0,-300.0,-798.33,0.0
300.0,-300.0,-833.39,0.0
300.0,-300.0,-883.09,0.0
300.0,-300.0,-948.53,0.0
300.0,-300.0,-1028.98,0.0
300.0,-300.0,-1123.15,0.0
300.0,-300.0,-1228.15,0.0
300.0,-300.0,-1340.79,0.0
300.0,-300.0,-1456.63,0.0
300.0,-300.0,-1572.59,0.0
300.0,-300.0,-1684.4,0.0
300.0,-300.0,-1789.78,0.0
300.0,-300.0,-1886.26,0.0
300.0,-300.0,-1974.05,0.0
300.0,-300.0,-2052.66,0.0
300.0,-300.0,-2123.29,0.0
300.0,-300.0,-2186.04,0.0
300.0,-300.0,-2242.42,0.0
300.0,-300.0,-2292.2,0.0
300.0,-300.0,-2336.38,0.0
300.0,-300.0,-2373.17,0.0
300.0,-300.0,-2402.21,0.0
300.0,-300.0,-2421.15,0.0
300.0,-300.0,-2430.63,0.0
300.0,-300.0,-2429.29,0.0
300.0,-300.0,-2418.15,0.0
300.0,-300.0,-2397.98,0.0
300.0,-300.0,-2371.72,0.0
300.0,-300.0,-2342.45,0.0
300.0,-300.0,-2314.56,0.0
300.0,-300.0,-2290.45,0.0
300.0,-300.0,-2273.99,0.0
300.0,-300.0,-2266.21,0.0
300.0,-300.0,-2268.29,0.0
300.0,-300.0,-2279.08,0.0
300.0,-300.0,-2296.12,0.0
300.0,-300.0,-2316.17,0.0
300.0,-300.0,-2334.21,0.0
300.0,-300.0,-2346.04,0.0
300.0,-300.0,-2343.47,0.0
300.0,-300.0,-2326.23,0.0
300.0,-300.0,-2290.52,0.0
300.0,-300.0,-2236.6,0.0
300.0,-300.0,-2164.46,0.0
300.0,-300.0,-2078.29,0.0
300.0,-300.0,-1982.03,0.0
300.0,-300.0,-1881.92,0.0
300.0,-300.0,-1783.17,0.0
300.0,-300.0,-1691.61,0.0
300.0,-300.0,-1611.23,0.0
300.0,-300.0,-1545.4,0.0
300.0,-300.0,-1497.2,0.0
300.0,-300.0,-1464.42,0.0
300.0,-300.0,-1444.92,0.0
300.0,-300.0,-1435.06,0.0
300.0,-300.0,-1430.72,0.0
300.0,-300.0,-1426.66,0.0
300.0,-300.0,-1418.3,0.0
300.0,-300.0,-1402.49,0.0
300.0,-300.0,-1376.21,0.0
300.0,-300.0,-1338.89,0.0
300.0,-300.0,-1290.39,0.0
300.0,-300.0,-1232.76,0.0
300.0,-300.0,-1168.56,0.0
300.0,-300.0,-1101.2,0.0
300.0,-300.0,-1033.38,0.0
300.0,-300.0,-968.39,0.0
300.0,-300.0,-908.58,0.0
300.0,-300.0,-855.15,0.0
300.0,-300.0,-808.68,0.0
300.0,-300.0,-769.45,0.0
300.0,-300.0,-736.73,0.0
300.0,-300.0,-711.13,0.0
300.0,-300.0,-692.36,0.0
300.0,-300.0,-681.55,0.0
300.0,-300.0,-679.57,0.0
300.0,-300.0,-688.57,0.0
300.0,-300.0,-710.41,0.0
300.0,-300.0,-747.61,0.0
300.0,-300.0,-801.13,0.0
300.0,-300.0,-871.14,0.0
300.0,-300.0,-957.69,0.0
300.0,-300.0,-1058.14,0.0
300.0,-300.0,-1169.2,0.0
300.0,-300.0,-1287.17,0.0
300.0,-300.0,-1407.55,0.0
300.0,-300.0,-1526.23,0.0
300.0,-300.0,-1638.7,0.0
300.0,-300.0,-1743.22,0.0
300.0,-300.0,-1837.9,0.0
300.0,-300.0,-1922.0,0.0
300.0,-300.0,-1996.83,0.0
300.0,-300.0,-2063.08,0.0
300.0,-300.0,-2122.84,0.0
300.0,-300.0,-2176.97,0.0
300.0,-300.0,-2226.31,0.0
300.0,-300.0,-2270.52,0.0
300.0,-300.0,-2309.26,0.0
300.0,-300.0,-2340.19,0.0
300.0,-300.0,-2362.34,0.0
300.0,-300.0,-2374.05,0.0
300.0,-300.0,-2374.69,0.0
300.0,-300.0,-2365.03,0.0
300.0,-300.0,-2346.38,0.0
300.0,-300.0,-2321.53,0.0
300.0,-300.0,-2294.14,0.0
300.0,-300.0,-2268.5,0.0
300.0,-300.0,-2248.22,0.0
300.0,-300.0,-2237.52,0.0
300.0,-300.0,-2237.51,0.0
300.0,-300.0,-2248.58,0.0
300.0,-300.0,-2270.04,0.0
300.0,-300.0,-2298.48,0.0
300.0,-300.0,-2330.3,0.0
300.0,-300.0,-2359.89,0.0
300.0,-300.0,-2382.23,0.0
300.0,-300.0,-2392.89,0.0
300.0,-300.0,-2387.62,0.0
300.0,-300.0,-2361.95,0.0
300.0,-300.0,-2316.36,0.0
300.0,-300.0,-2251.31,0.0
300.0,-300.0,-2169.92,0.0
300.0,-300.0,-2075.82,0.0
300.0,-300.0,-1974.12,0.0
300.0,-300.0,-1869.93,0.0
300.0,-300.0,-1769.39,0.0
300.0,-300.0,-1677.28,0.0
300.0,-300.0,-1597.15,0.0
300.0,-300.0,-1532.75,0.0
300.0,-300.0,-1484.03,0.0
300.0,-300.0,-1454.13,0.0
300.0,-300.0,-1437.84,0.0
300.0,-300.0,-1432.8,0.0
300.0,-300.0,-1435.15,0.0
300.0,-300.0,-1440.79,0.0
300.0,-300.0,-1444.68,0.0
300.0,-300.0,-1443.65,0.0
300.0,-300.0,-1433.28,0.0
300.0,-300.0,-1411.96,0.0
300.0,-300.0,-1378.57,0.0
300.0,-300.0,-1334.14,0.0
300.0,-300.0,-1278.57,0.0
300.0,-300.0,-1215.77,0.0
300.0,-300.0,-1148.03,0.0
300.0,-300.0,-1079.16,0.0
300.0,-300.0,-1011.67,0.0
300.0,-300.0,-948.3,0.0
300.0,-300.0,-890.65,0.0
300.0,-300.0,-840.56,0.0
300.0,-300.0,-797.62,0.0
300.0,-300.0,-762.9,0.0
300.0,-300.0,-736.26,0.0
300.0,-300.0,-718.24,0.0
300.0,-300.0,-709.57,0.0
300.0,-300.0,-711.21,0.0
300.0,-300.0,-724.61,0.0
300.0,-300.0,-751.37,0.0
300.0,-300.0,-793.88,0.0
300.0,-300.0,-851.89,0.0
300.0,-300.0,-925.59,0.0
300.0,-300.0,-1014.45,0.0
300.0,-300.0,-1116.24,0.0
300.0,-300.0,-1227.5,0.0
300.0,-300.0,-1344.38,0.0
300.0,-300.0,-1463.1,0.0
300.0,-300.0,-1579.15,0.0
300.0,-300.0,-1689.6,0.0
300.0,-300.0,-1792.36,0.0
300.0,-300.0,-1885.95,0.0
300.0,-300.0,-1969.48,0.0
300.0,-300.0,-2044.28,0.0
300.0,-300.0,-2111.39,0.0
300.0,-300.0,-2171.95,0.0
300.0,-300.0,-2226.66,0.0
300.0,-300.0,-2276.14,0.0
300.0,-300.0,-2319.59,0.0
300.0,-300.0,-2356.17,0.0
300.0,-300.0,-2384.49,0.0
300.0,-300.0,-2403.25,0.0
300.0,-300.0,-2410.88,0.0
300.0,-300.0,-2407.18,0.0
300.0,-300.0,-2392.91,0.0
300.0,-300.0,-2370.43,0.0
300.0,-300.0,-2342.06,0.0
300.0,-300.0,-2312.11,0.0
300.0,-300.0,-2284.12,0.0
300.0,-300.0,-2262.25,0.0
300.0,-300.0,-2249.32,0.0
300.0,-300.0,-2247.02,0.0
300.0,-300.0,-2255.37,0.0
300.0,-300.0,-2273.11,0.0
300.0,-300.0,-2296.83,0.0
300.0,-300.0,-2322.63,0.0
300.0,-300.0,-2345.07,0.0
300.0,-300.0,-2359.39,0.0
300.0,-300.0,-2360.59,0.0
300.0,-300.0,-2342.59,0.0
300.0,-300.0,-2305.49,0.0
300.0,-300.0,-2248.41,0.0
300.0,-300.0,-2171.6,0.0
300.0,-300.0,-2079.44,0.0
300.0,-300.0,-1975.82,0.0
300.0,-300.0,-1866.09,0.0
300.0,-300.0,-1756.54,0.0
300.0,-300.0,-1652.43,0.0
300.0,-300.0,-1558.93,0.0
300.0,-300.0,-1480.29,0.0
300.0,-300.0,-1417.97,0.0
300.0,-300.0,-1372.62,0.0
300.0,-300.0,-1345.03,0.0
300.0,-300.0,-1331.02,0.0
300.0,-300.0,-1326.06,0.0
300.0,-300.0,-1326.58,0.0
300.0,-300.0,-1327.77,0.0
300.0,-300.0,-1325.92,0.0
300.0,-300.0,-1317.26,0.0
300.0,-300.0,-1299.79,0.0
300.0,-300.0,-1271.68,0.0
300.0,-300.0,-1233.54,0.0
300.0,-300.0,-1186.98,0.0
300.0,-300.0,-1133.61,0.0
300.0,-300.0,-1076.92,0.0
300.0,-300.0,-1019.54,0.0
300.0,-300.0,-964.62,0.0
300.0,-300.0,-914.11,0.0
300.0,-300.0,-869.65,0.0
300.0,-300.0,-832.16,0.0
300.0,-300.0,-802.0,0.0
300.0,-300.0,-779.19,0.0
300.0,-300.0,-763.93,0.0
300.0,-300.0,-755.84,0.0
300.0,-300.0,-755.85,0.0
300.0,-300.0,-765.4,0.0
300.0,-300.0,-785.28,0.0
300.0,-300.0,-817.56,0.0
300.0,-300.0,-863.02,0.0
300.0,-300.0,-923.03,0.0
300.0,-300.0,-998.13,0.0
300.0,-300.0,-1086.69,0.0
300.0,-300.0,-1186.66,0.0
300.0,-300.0,-1295.2,0.0
300.0,-300.0,-1408.56,0.0
300.0,-300.0,-1522.41,0.0
300.0,-300.0,-1632.74,0.0
300.0,-300.0,-1736.32,0.0
300.0,-300.0,-1831.04,0.0
300.0,-300.0,-1915.33,0.0
300.0,-300.0,-1989.52,0.0
300.0,-300.0,-2053.08,0.0
300.0,-300.0,-2108.67,0.0
300.0,-300.0,-2157.3,0.0
300.0,-300.0,-2200.25,0.0
300.0,-300.0,-2237.88,0.0
300.0,-300.0,-2270.3,0.0
300.0,-300.0,-2296.71,0.0
300.0,-300.0,-2316.38,0.0
300.0,-300.0,-2327.37,0.0
300.0,-300.0,-2329.19,0.0
300.0,-300.0,-2320.81,0.0
300.0,-300.0,-2303.75,0.0
300.0,-300.0,-2279.12,0.0
300.0,-300.0,-2250.16,0.0
300.0,-300.0,-2219.69,0.0
300.0,-300.0,-2192.04,0.0
300.0,-300.0,-2170.18,0.0
300.0,-300.0,-2158.12,0.0
300.0,-300.0,-2156.59,0.0
300.0,-300.0,-2166.2,0.0
300.0,-300.0,-2185.11,0.0
300.0,-300.0,-2211.14,0.0
300.0,-300.0,-2239.88,0.0
300.0,-300.0,-2267.48,0.0
300.0,-300.0,-2288.98,0.0
300.0,-300.0,-2299.89,0.0
300.0,-300.0,-2297.13,0.0
300.0,-300.0,-2274.63,0.0
300.0,-300.0,-2234.95,0.0
300.0,-300.0,-2177.13,0.0
300.0,-300.0,-2103.19,0.0
300.0,-300.0,-2015.87,0.0
300.0,-300.0,-1919.66,0.0
300.0,-300.0,-1819.65,0.0
300.0,-300.0,-1720.47,0.0
300.0,-300.0,-1626.96,0.0
300.0,-300.0,-1543.97,0.0
300.0,-300.0,-1473.75,0.0
300.0,-300.0,-1418.62,0.0
300.0,-300.0,-1381.76,0.0
300.0,-300.0,-1359.23,0.0
300.0,-300.0,-1349.88,0.0
300.0,-300.0,-1350.09,0.0
300.0,-300.0,-1356.28,0.0
300.0,-300.0,-1363.47,0.0
300.0,-300.0,-1367.43,0.0
300.0,-300.0,-1364.03,0.0
300.0,-300.0,-1350.33,0.0
300.0,-300.0,-1324.2,0.0
300.0,-300.0,-1284.85,0.0
300.0,-300.0,-1233.87,0.0
300.0,-300.0,-1173.34,0.0
300.0,-300.0,-1106.05,0.0
300.0,-300.0,-1035.67,0.0
300.0,-300.0,-965.85,0.0
300.0,-300.0,-899.74,0.0
300.0,-300.0,-840.34,0.0
300.0,-300.0,-789.01,0.0
300.0,-300.0,-746.94,0.0
300.0,-300.0,-714.23,0.0
300.0,-300.0,-691.23,0.0
300.0,-300.0,-678.33,0.0
300.0,-300.0,-674.85,0.0
300.0,-300.0,-682.61,0.0
300.0,-300.0,-701.96,0.0
300.0,-300.0,-735.23,0.0
300.0,-300.0,-786.8,0.0
300.0,-300.0,-855.15,0.0
300.0,-300.0,-942.29,0.0
300.0,-300.0,-1047.69,0.0
300.0,-300.0,-1169.08,0.0
300.0,-300.0,-1303.18,0.0
300.0,-300.0,-1445.4,0.0
300.0,-300.0,-1590.57,0.0
300.0,-300.0,-1732.79,0.0
300.0,-300.0,-1867.27,0.0
300.0,-300.0,-1990.33,0.0
300.0,-300.0,-2099.28,0.0
300.0,-300.0,-2193.04,0.0
300.0,-300.0,-2272.79,0.0
300.0,-300.0,-2339.45,0.0
300.0,-300.0,-2397.25,0.0
300.0,-300.0,-2448.29,0.0
300.0,-300.0,-2495.69,0.0
300.0,-300.0,-2540.73,0.0
300.0,-300.0,-2584.66,0.0
300.0,-300.0,-2626.73,0.0
300.0,-300.0,-2666.17,0.0
300.0,-300.0,-2700.48,0.0
300.0,-300.0,-2728.11,0.0
300.0,-300.0,-2747.71,0.0
300.0,-300.0,-2759.18,0.0
300.0,-300.0,-2762.56,0.0
300.0,-300.0,-2760.01,0.0
300.0,-300.0,-2753.33,0.0
300.0,-300.0,-2746.48,0.0
300.0,-300.0,-2741.65,0.0
300.0,-300.0,-2741.56,0.0
300.0,-300.0,-2746.43,0.0
300.0,-300.0,-2756.69,0.0
300.0,-300.0,-2770.05,0.0
300.0,-300.0,-2782.81,0.0
300.0,-300.0,-2790.43,0.0
300.0,-300.0,-2788.37,0.0
300.0,-300.0,-2770.83,0.0
300.0,-300.0,-2731.68,0.0
300.0,-300.0,-2668.98,0.0
300.0,-300.0,-2581.68,0.0
300.0,-300.0,-2469.26,0.0
300.0,-300.0,-2335.31,0.0
300.0,-300.0,-2184.01,0.0
300.0,-300.0,-2021.99,0.0
300.0,-300.0,-1854.99,0.0
300.0,-300.0,-1690.83,0.0
300.0,-300.0,-1535.1,0.0
300.0,-300.0,-1393.06,0.0
300.0,-300.0,-1268.5,0.0
300.0,-300.0,-1162.37,0.0
300.0,-300.0,-1078.15,0.0
300.0,-300.0,-1010.68,0.0
300.0,-300.0,-957.64,0.0
300.0,-300.0,-915.56,0.0
300.0,-300.0,-880.64,0.0
300.0,-300.0,-849.25,0.0
300.0,-300.0,-817.83,0.0
300.0,-300.0,-783.57,0.0
300.0,-300.0,-746.27,0.0
300.0,-300.0,-704.57,0.0
300.0,-300.0,-659.53,0.0
300.0,-300.0,-612.11,0.0
300.0,-300.0,-563.63,0.0
300.0,-300.0,-516.08,0.0
300.0,-300.0,-470.27,0.0
300.0,-300.0,-427.42,0.0
300.0,-300.0,-388.0,0.0
300.0,-300.0,-351.36,0.0
300.0,-300.0,-317.93,0.0
300.0,-300.0,-286.76,0.0
300.0,-300.0,-258.34,0.0
300.0,-300.0,-232.71,0.0
300.0,-300.0,-211.81,0.0
300.0,-300.0,-197.21,0.0
300.0,-300.0,-191.1,0.0
300.0,-300.0,-196.67,0.0
300.0,-300.0,-216.83,0.0
300.0,-300.0,-253.61,0.0
300.0,-300.0,-308.33,0.0
300.0,-300.0,-380.43,0.0
300.0,-300.0,-469.41,0.0
300.0,-300.0,-572.69,0.0
300.0,-300.0,-686.84,0.0
300.0,-300.0,-808.02,0.0
300.0,-300.0,-931.79,0.0
300.0,-300.0,-1055.11,0.0
300.0,-300.0,-1175.69,0.0
300.0,-300.0,-1291.64,0.0
300.0,-300.0,-1403.96,0.0
300.0,-300.0,-1510.53,0.0
300.0,-300.0,-1616.23,0.0
300.0,-300.0,-1721.99,0.0
300.0,-300.0,-1829.26,0.0
300.0,-300.0,-1938.3,0.0
300.0,-300.0,-2049.27,0.0
300.0,-300.0,-2160.46,0.0
300.0,-300.0,-2272.02,0.0
300.0,-300.0,-2378.89,0.0
300.0,-300.0,-2479.52,0.0
300.0,-300.0,-2570.44,0.0
300.0,-300.0,-2650.35,0.0
300.0,-300.0,-2718.69,0.0
300.0,-300.0,-2775.03,0.0
300.0,-300.0,-2821.67,0.0
300.0,-300.0,-2859.84,0.0
300.0,-300.0,-2893.03,0.0
300.0,-300.0,-2924.55,0.0
300.0,-300.0,-2956.06,0.0
300.0,-300.0,-2988.5,0.0
300.0,-300.0,-3021.75,0.0
300.0,-300.0,-3053.74,0.0
300.0,-300.0,-3082.07,0.0
300.0,-300.0,-3102.88,0.0
300.0,-300.0,-3112.15,0.0
300.0,-300.0,-3106.57,0.0
300.0,-300.0,-3084.04,0.0
300.0,-300.0,-3041.65,0.0
300.0,-300.0,-2983.84,0.0
300.0,-300.0,-2912.06,0.0
300.0,-300.0,-2831.78,0.0
300.0,-300.0,-2748.9,0.0
300.0,-300.0,-2669.6,0.0
300.0,-300.0,-2599.69,0.0
300.0,-300.0,-2543.44,0.0
300.0,-300.0,-2503.7,0.0
300.0,-300.0,-2480.45,0.0
300.0,-300.0,-2470.25,0.0
300.0,-300.0,-2469.13,0.0
300.0,-300.0,-2473.01,0.0
300.0,-300.0,-2472.88,0.0
300.0,-300.0,-2462.0,0.0
300.0,-300.0,-2433.63,0.0
300.0,-300.0,-2383.82,0.0
300.0,-300.0,-2309.69,0.0
300.0,-300.0,-2209.79,0.0
300.0,-300.0,-2086.04,0.0
300.0,-300.0,-1940.17,0.0
300.0,-300.0,-1776.73,0.0
300.0,-300.0,-1600.87,0.0
300.0,-300.0,-1417.02,0.0
300.0,-300.0,-1230.21,0.0
300.0,-300.0,-1044.02,0.0
300.0,-300.0,-862.51,0.0
300.0,-300.0,-688.18,0.0
300.0,-300.0,-523.62,0.0
300.0,-300.0,-370.1,0.0
300.0,-300.0,-228.79,0.0
300.0,-300.0,-101.77,0.0
300.0,-300.0,8.31,0.0
300.0,-300.0,100.75,0.0
300.0,-300.0,173.06,0.0
300.0,-300.0,223.03,0.0
300.0,-300.0,249.83,0.0
300.0,-300.0,253.17,0.0
300.0,-300.0,233.04,0.0
300.0,-300.0,191.81,0.0
300.0,-300.0,133.49,0.0
300.0,-300.0,60.67,0.0
300.0,-300.0,-22.65,0.0
300.0,-300.0,-111.15,0.0
300.0,-300.0,-201.86,0.0
300.0,-300.0,-290.32,0.0
300.0,-300.0,-375.68,0.0
300.0,-300.0,-455.42,0.0
300.0,-300.0,-529.72,0.0
300.0,-300.0,-597.75,0.0
300.0,-300.0,-661.43,0.0
300.0,-300.0,-720.59,0.0
300.0,-300.0,-775.44,0.0
300.0,-300.0,-826.82,0.0
300.0,-300.0,-873.94,0.0
300.0,-300.0,-916.01,0.0
300.0,-300.0,-952.28,0.0
300.0,-300.0,-982.18,0.0
300.0,-300.0,-1005.78,0.0
300.0,-300.0,-1024.29,0.0
300.0,-300.0,-1039.78,0.0
300.0,-300.0,-1053.69,0.0
300.0,-300.0,-1071.01,0.0
300.0,-300.0,-1094.57,0.0
300.0,-300.0,-1128.2,0.0
300.0,-300.0,-1174.16,0.0
300.0,-300.0,-1234.29,0.0
300.0,-300.0,-1308.38,0.0
300.0,-300.0,-1395.5,0.0
300.0,-300.0,-1490.62,0.0
300.0,-300.0,-1590.02,0.0
300.0,-300.0,-1685.89,0.0
300.0,-300.0,-1774.73,0.0
300.0,-300.0,-1850.21,0.0
300.0,-300.0,-1908.83,0.0
300.0,-300.0,-1947.89,0.0
300.0,-300.0,-1966.83,0.0
300.0,-300.0,-1968.12,0.0
300.0,-300.0,-1955.03,0.0
300.0,-300.0,-1932.56,0.0
300.0,-300.0,-1907.68,0.0
300.0,-300.0,-1884.74,0.0
300.0,-300.0,-1869.73,0.0
300.0,-300.0,-1866.52,0.0
300.0,-300.0,-1877.09,0.0
300.0,-300.0,-1901.2,0.0
300.0,-300.0,-1936.87,0.0
300.0,-300.0,-1980.64,0.0
300.0,-300.0,-2027.98,0.0
300.0,-300.0,-2072.38,0.0
300.0,-300.0,-2110.49,0.0
300.0,-300.0,-2139.15,0.0
300.0,-300.0,-2153.2,0.0
300.0,-300.0,-2151.37,0.0
300.0,-300.0,-2134.22,0.0
300.0,-300.0,-2102.68,0.0
300.0,-300.0,-2059.01,0.0
300.0,-300.0,-2005.86,0.0
300.0,-300.0,-1946.7,0.0
300.0,-300.0,-1883.16,0.0
300.0,-300.0,-1818.28,0.0
300.0,-300.0,-1754.36,0.0
300.0,-300.0,-1691.96,0.0
300.0,-300.0,-1632.11,0.0
300.0,-300.0,-1575.71,0.0
300.0,-300.0,-1523.48,0.0
300.0,-300.0,-1477.22,0.0
300.0,-300.0,-1437.99,0.0
300.0,-300.0,-1408.31,0.0
300.0,-300.0,-1391.3,0.0
300.0,-300.0,-1387.98,0.0
300.0,-300.0,-1401.71,0.0
300.0,-300.0,-1433.12,0.0
300.0,-300.0,-1482.67,0.0
300.0,-300.0,-1549.39,0.0
300.0,-300.0,-1631.66,0.0
300.0,-300.0,-1726.18,0.0
300.0,-300.0,-1829.37,0.0
300.0,-300.0,-1936.72,0.0
300.0,-300.0,-2045.67,0.0
300.0,-300.0,-2150.74,0.0
300.0,-300.0,-2250.91,0.0
300.0,-300.0,-2343.71,0.0
300.0,-300.0,-2428.28,0.0
300.0,-300.0,-2504.96,0.0
300.0,-300.0,-2574.48,0.0
300.0,-300.0,-2637.47,0.0
300.0,-300.0,-2694.21,0.0
300.0,-300.0,-2745.08,0.0
300.0,-300.0,-2788.65,0.0
300.0,-300.0,-2823.95,0.0
300.0,-300.0,-2850.81,0.0
300.0,-300.0,-2865.82,0.0
300.0,-300.0,-2868.58,0.0
300.0,-300.0,-2859.15,0.0
300.0,-300.0,-2838.46,0.0
300.0,-300.0,-2809.13,0.0
300.0,-300.0,-2773.65,0.0
300.0,-300.0,-2736.56,0.0
300.0,-300.0,-2700.86,0.0
300.0,-300.0,-2671.99,0.0
300.0,-300.0,-2651.14,0.0
300.0,-300.0,-2639.75,0.0
300.0,-300.0,-2638.89,0.0
300.0,-300.0,-2645.91,0.0
300.0,-300.0,-2658.07,0.0
300.0,-300.0,-2671.23,0.0
300.0,-300.0,-2681.28,0.0
300.0,-300.0,-2682.02,0.0
300.0,-300.0,-2670.45,0.0
300.0,-300.0,-2642.56,0.0
300.0,-300.0,-2596.41,0.0
300.0,-300.0,-2531.85,0.0
300.0,-300.0,-2449.38,0.0
300.0,-300.0,-2351.61,0.0
300.0,-300.0,-2241.45,0.0
300.0,-300.0,-2123.09,0.0
300.0,-300.0,-2000.76,0.0
300.0,-300.0,-1878.34,0.0
300.0,-300.0,-1758.98,0.0
300.0,-300.0,-1647.28,0.0
300.0,-300.0,-1545.38,0.0
300.0,-300.0,-1454.24,0.0
300.0,-300.0,-1374.65,0.0
300.0,-300.0,-1306.48,0.0
300.0,-300.0,-1248.92,0.0
300.0,-300.0,-1199.69,0.0
300.0,-300.0,-1157.03,0.0
300.0,-300.0,-1117.66,0.0
300.0,-300.0,-1079.12,0.0
300.0,-300.0,-1039.32,0.0
300.0,-300.0,-995.95,0.0
300.0,-300.0,-947.27,0.0
300.0,-300.0,-893.43,0.0
300.0,-300.0,-834.2,0.0
300.0,-300.0,-771.06,0.0
300.0,-300.0,-705.68,0.0
300.0,-300.0,-640.52,0.0
300.0,-300.0,-576.1,0.0
300.0,-300.0,-516.08,0.0
300.0,-300.0,-462.03,0.0
300.0,-300.0,-413.62,0.0
300.0,-300.0,-372.08,0.0
300.0,-300.0,-337.24,0.0
300.0,-300.0,-309.36,0.0
300.0,-300.0,-287.9,0.0
300.0,-300.0,-273.12,0.0
300.0,-300.0,-265.99,0.0
300.0,-300.0,-266.25,0.0
300.0,-300.0,-276.29,0.0
300.0,-300.0,-297.26,0.0
300.0,-300.0,-329.73,0.0
300.0,-300.0,-373.79,0.0
300.0,-300.0,-422.37,0.0
300.0,-300.0,-446.88,0.0
300.0,-300.0,-529.74,0.0
300.0,-300.0,-323.29,0.0
300.0,-300.0,1266.71,0.0
300.0,-300.0,0.0,0.0
300.0,-300.0,0.0,0.0
300.0,-300.0,0.0,0.0
300.0,-300.0,0.0,0.0
300.0,-300.0,0.0,0.0
300.0,-300.0,0.0,0.0
300.0,-300.0,0.0,0.0
300.0,-300.0,0.0,0.0
300.0,-300.0,0.0,0.0
300.0,-300.0,0.0,0.0
300.0,-300.0,0.0,0.0
300.0,-300.0,0.0,0.0
300.0,-300.0,0.0,0.0
300.0,-300.0,0.0,0.0
300.0,-300.0,0.0,0.0
300.0,-300.0,0.0,0.0
300.0,-300.0,0.0,0.0
300.0,-300.0,0.0,0.0
300.0,-300.0,0.0,0.0
300.0,-300.0,0.0,0.0
300.0,-300.0,0.0,0.0
300.0,-300.0,0.0,0.0
300.0,-300.0,0.0,0.0
300.0,-300.0,0.0,0.0
300.0,-300.0,0.0,0.0
300.0,-300.0,0.0,0.0
300.0,-300.0,0.0,0.0
300.0,-300.0,0.0,0.0
300.0,-300.0,0.0,0.0
300.0,-300.0,0.0,0.0
300.0,-300.0,0.0,0.0
300.0,-300.0,0.0,0.0
300.0,-300.0,0.0,0.0
300.0,-300.0,0.0,0.0
300.0,-300.0,0.0,0.0
300.0,-300.0,0.0,0.0
300.0,-300.0,0.0,0.0
300.0,-300.0,0.0,0.0
300.0,-300.0,0.0,0.0
300.0,-300.0,0.0,0.0
300.0,-300.0,0.0,0.0
300.0,-300.0,0.0,0.0
300.0,-300.0,0.0,0.0
300.0,-300.0,0.0,0.0
300.0,-300.0,0.0,0.0
300.0,-300.0,0.0,0.0
300.0,-300.0,0.0,0.0
300.0,-300.0,0.0,0.0
300.0,-300.0,0.0,0.0
300.0,-300.0,0.0,0.0
300.0,-300.0,0.0,0.0
300.0,-300.0,0.0,0.0
300.0,-300.0,0.0,0.0
300.0,-300.0,0.0,0.0
300.0,-300.0,0.0,0.0
300.0,-300.0,0.0,0.0
300.0,-300.0,0.0,0.0
300.0,-300.0,0.0,0.0
300.0,-300.0,0.0,0.0
300.0,-300.0,0.0,0.0
300.0,-300.0,0.0,0.0
300.0,-300.0,0.0,0.0
300.0,-300.0,0.0,0.0
300.0,-300.0,0.0,0.0
300.0,-300.0,0.0,0.0
300.0,-300.0,0.0,0.0
300.0,-300.0,0.0,0.0
300.0,-300.0,0.0,0.0
300.0,-300.0,0.0,0.0
300.0,-300.0,0.0,0.0
300.0,-300.0,0.0,0.0
300.0,-300.0,0.0,0.0
300.0,-300.0,0.0,0.0
300.0,-300.0,0.0,0.0
300.0,-300.0,0.0,0.0
300.0,-300.0,0.0,0.0
300.0,-300.0,0.0,0.0
300.0,-300.0,0.0,0.0
300.0,-300.0,0.0,0.0
300.0,-300.0,0.0,0.0
300.0,-300.0,0.0,0.0
300.0,-300.0,0.0,0.0
300.0,-300.0,0.0,0.0
300.0,-300.0,0.0,0.0
300.0,-300.0,0.0,0.0
300.0,-300.0,0.0,0.0
300.0,-300.0,0.0,0.0
300.0,-300.0,0.0,0.0
300.0,-300.0,0.0,0.0
300.0,-300.0,0.0,0.0
300.0,-300.0,0.0,0.0
300.0,-300.0,0.0,0.0
300.0,-300.0,0.0,0.0
300.0,-300.0,0.0,0.0
300.0,-300.0,0.0,0.0
300.0,-300.0,0.0,0.0
300.0,-300.0,0.0,0.0
300.0,-300.0,0.0,0.0
300.0,-300.0,0.0,0.0
300.0,-300.0,0.0,0.0
300.0,-300.0,0.0,0.0
300.0,-300.0,0.0,0.0
300.0,-300.0,0.0,0.0
300.0,-300.0,0.0,0.0
300.0,-300.0,0.0,0.0
300.0,-300.0,0.0,0.0
300.0,-300.0,0.0,0.0
300.0,-300.0,0.0,0.0
300.0,-300.0,0.0,0.0
300.0,-300.0,0.0,0.0
300.0,-300.0,0.0,0.0
300.0,-300.0,0.0,0.0
300.0,-300.0,0.0,0.0
300.0,-300.0,0.0,0.0
300.0,-300.0,0.0,0.0
300.0,-300.0,0.0,0.0
300.0,-300.0,0.0,0.0
300.0,-300.0,0.0,0.0
300.0,-300.0,0.0,0.0
300.0,-300.0,0.0,0.0
300.0,-300.0,0.0,0.0
300.0,-300.0,0.0,0.0
300.0,-300.0,0.0,0.0
300.0,-300.0,0.0,0.0
300.0,-300.0,0.0,0.0
300.0,-300.0,0.0,0.0
300.0,-300.0,0.0,0.0
300.0,-300.0,0.0,0.0
300.0,-300.0,0.0,0.0
300.0,-300.0,0.0,0.0
300.0,-300.0,0.0,0.0
300.0,-300.0,0.0,0.0
300.0,-300.0,0.0,0.0
300.0,-300.0,0.0,0.0
300.0,-300.0,0.0,0.0
300.0,-300.0,0.0,0.0
300.0,-300.0,0.0,0.0
300.0,-300.0,0.0,0.0
300.0,-300.0,0.0,0.0
300.0,-300.0,0.0,0.0
300.0,-300.0,0.0,0.0
300.0,-300.0,0.0,0.0
300.0,-300.0,0.0,0.0
300.0,-300.0,0.0,0.0
300.0,-300.0,0.0,0.0
300.0,-300.0,0.0,0.0
300.0,-300.0,0.0,0.0
300.0,-300.0,0.0,0.0
300.0,-300.0,0.0,0.0
300.0,-300.0,0.0,0.0
300.0,-300.0,0.0,0.0
300.0,-300.0,0.0,0.0
300.0,-300.0,0.0,0.0
300.0,-300.0,0.0,0.0
300.0,-300.0,0.0,0.0
300.0,-300.0,0.0,0.0
300.0,-300.0,0.0,0.0
300.0,-300.0,0.0,0.0
300.0,-300.0,0.0,0.0
300.0,-300.0,0.0,0.0
300.0,-300.0,0.0,0.0
300.0,-300.0,0.0,0.0
300.0,-300.0,0.0,0.0
300.0,-300.0,0.0,0.0
300.0,-300.0,0.0,0.0
300.0,-300.0,0.0,0.0
300.0,-300.0,0.0,0.0
300.0,-300.0,0.0,0.0
300.0,-300.0,0.0,0.0
300.0,-300.0,0.0,0.0
300.0,-300.0,0.0,0.0
300.0,-300.0,0.0,0.0
300.0,-300.0,0.0,0.0
300.0,-300.0,0.0,0.0
300.0,-300.0,0.0,0.0
300.0,-300.0,0.0,0.0
300.0,-300.0,0.0,0.0
300.0,-300.0,0.0,0.0
300.0,-300.0,0.0,0.0
300.0,-300.0,0.0,0.0
300.0,-300.0,0.0,0.0
300.0,-300.0,0.0,0.0
300.0,-300.0,0.0,0.0
300.0,-300.0,0.0,0.0
300.0,-300.0,0.0,0.0
300.0,-300.0,0.0,0.0
300.0,-300.0,0.0,0.0
300.0,-300.0,0.0,0.0
300.0,-300.0,0.0,0.0
300.0,-300.0,0.0,0.0
300.0,-300.0,0.0,0.0
300.0,-300.0,0.0,0.0
300.0,-300.0,0.0,0.0
300.0,-300.0,0.0,0.0
300.0,-300.0,0.0,0.0
300.0,-300.0,0.0,0.0
300.0,-300.0,0.0,0.0
300.0,-300.0,0.0,0.0
300.0,-300.0,0.0,0.0
300.0,-300.0,0.0,0.0
300.0,-300.0,0.0,0.0
300.0,-300.0,0.0,0.0
300.0,-300.0,0.0,0.0
300.0,-300.0,0.0,0.0
300.0,-300.0,0.0,0.0
300.0,-300.0,0.0,0.0
300.0,-300.0,0.0,0.0
300.0,-300.0,0.0,0.0
300.0,-300.0,0.0,0.0
300.0,-300.0,0.0,0.0
300.0,-300.0,0.0,0.0
300.0,-300.0,0.0,0.0
300.0,-300.0,0.0,0.0
300.0,-300.0,0.0,0.0
300.0,-300.0,0.0,0.0
300.0,-300.0,0.0,0.0
300.0,-300.0,0.0,0.0
300.0,-300.0,0.0,0.0
300.0,-300.0,0.0,0.0
300.0,-300.0,0.0,0.0
300.0,-300.0,0.0,0.0
300.0,-300.0,0.0,0.0
300.0,-300.0,0.0,0.0
300.0,-300.0,0.0,0.0
300.0,-300.0,0.0,0.0
300.0,-300.0,0.0,0.0
300.0,-300.0,0.0,0.0
300.0,-300.0,0.0,0.0
300.0,-300.0,0.0,0.0
300.0,-300.0,0.0,0.0
300.0,-300.0,0.0,0.0
300.0,-300.0,0.0,0.0
300.0,-300.0,0.0,0.0
300.0,-300.0,0.0,0.0
300.0,-300.0,0.0,0.0
300.0,-300.0,0.0,0.0
300.0,-300.0,0.0,0.0
300.0,-300.0,0.0,0.0
300.0,-300.0,0.0,0.0
300.0,-300.0,0.0,0.0
300.0,-300.0,0.0,0.0
300.0,-300.0,0.0,0.0
300.0,-300.0,0.0,0.0
300.0,-300.0,0.0,0.0
300.0,-300.0,0.0,0.0
300.0,-300.0,0.0,0.0
300.0,-300.0,0.0,0.0
300.0,-300.0,0.0,0.0
300.0,-300.0,0.0,0.0
300.0,-300.0,0.0,0.0
300.0,-300.0,0.0,0.0
300.0,-300.0,0.0,0.0
300.0,-300.0,0.0,0.0
300.0,-300.0,0.0,0.0
300.0,-300.0,0.0,0.0
300.0,-300.0,0.0,0.0
300.0,-300.0,0.0,0.0
300.0,-300.0,0.0,0.0
300.0,-300.0,0.0,0.0
300.0,-300.0,0.0,0.0
300.0,-300.0,0.0,0.0
300.0,-300.0,0.0,0.0
300.0,-300.0,0.0,0.0
300.0,-300.0,0.0,0.0
300.0,-300.0,0.0,0.0
300.0,-300.0,0.0,0.0
300.0,-300.0,0.0,0.0
300.0,-300.0,0.0,0.0
300.0,-300.0,0.0,0.0
300.0,-300.0,0.0,0.0
300.0,-300.0,0.0,0.0
300.0,-300.0,0.0,0.0
300.0,-300.0,0.0,0.0
300.0,-300.0,0.0,0.0
300.0,-300.0,0.0,0.0
300.0,-300.0,0.0,0.0
300.0,-300.0,0.0,0.0
300.0,-300.0,0.0,0.0
300.0,-300.0,0.0,0.0
300.0,-300.0,0.0,0.0
300.0,-300.0,0.0,0.0
300.0,-300.0,0.0,0.0
300.0,-300.0,0.0,0.0
300.0,-300.0,0.0,0.0
300.0,-300.0,0.0,0.0
300.0,-300.0,0.0,0.0
300.0,-300.0,0.0,0.0
300.0,-300.0,0.0,0.0
300.0,-300.0,0.0,0.0
300.0,-300.0,0.0,0.0
300.0,-300.0,0.0,0.0
300.0,-300.0,0.0,0.0
300.0,-300.0,0.0,0.0
300.0,-300.0,0.0,0.0
300.0,-300.0,0.0,0.0
300.0,-300.0,0.0,0.0
300.0,-300.0,0.0,0.0
300.0,-300.0,0.0,0.0
300.0,-300.0,0.0,0.0
300.0,-300.0,0.0,0.0
300.0,-300.0,0.0,0.0
300.0,-300.0,0.0,0.0
300.0,-300.0,0.0,0.0
300.0,-300.0,0.0,0.0
300.0,-300.0,0.0,0.0
300.0,-300.0,0.0,0.0
300.0,-300.0,0.0,0.0
300.0,-300.0,0.0,0.0
300.0,-300.0,0.0,0.0
300.0,-300.0,0.0,0.0
300.0,-300.0,0.0,0.0
300.0,-300.0,0.0,0.0
300.0,-300.0,0.0,0.0
300.0,-300.0,0.0,0.0
300.0,-300.0,0.0,0.0
300.0,-300.0,0.0,0.0
300.0,-300.0,0.0,0.0
300.0,-300.0,0.0,0.0
300.0,-300.0,0.0,0.0
300.0,-300.0,0.0,0.0
300.0,-300.0,0.0,0.0
300.0,-300.0,0.0,0.0
300.0,-300.0,0.0,0.0
300.0,-300.0,0.0,0.0
300.0,-300.0,0.0,0.0
300.0,-300.0,0.0,0.0
300.0,-300.0,0.0,0.0
300.0,-300.0,0.0,0.0
300.0,-300.0,0.0,0.0
300.0,-300.0,0.0,0.0
300.0,-300.0,0.0,0.0
300.0,-300.0,0.0,0.0
300.0,-300.0,0.0,0.0
300.0,-300.0,0.0,0.0
300.0,-300.0,0.0,0.0
300.0,-300.0,0.0,0.0
300.0,-300.0,0.0,0.0
300.0,-300.0,0.0,0.0
300.0,-300.0,0.0,0.0
300.0,-300.0,0.0,0.0
300.0,-300.0,0.0,0.0
300.0,-300.0,0.0,0.0
300.0,-300.0,0.0,0.0
300.0,-300.0,0.0,0.0
300.0,-300.0,0.0,0.0
300.0,-300.0,0.0,0.0
300.0,-300.0,0.0,0.0
300.0,-300.0,0.0,0.0
300.0,-300.0,0.0,0.0
300.0,-300.0,0.0,0.0
300.0,-300.0,0.0,0.0
300.0,-300.0,0.0,0.0
300.0,-300.0,0.0,0.0
300.0,-300.0,0.0,0.0
300.0,-300.0,0.0,0.0
300.0,-300.0,0.0,0.0
300.0,-300.0,0.0,0.0
300.0,-300.0,0.0,0.0
300.0,-300.0,0.0,0.0
300.0,-300.0,0.0,0.0
300.0,-300.0,0.0,0.0
300.0,-300.0,0.0,0.0
300.0,-300.0,0.0,0.0
300.0,-300.0,0.0,0.0
300.0,-300.0,0.0,0.0
300.0,-300.0,0.0,0.0
300.0,-300.0,0.0,0.0
300.0,-300.0,0.0,0.0
300.0,-300.0,0.0,0.0
300.0,-300.0,0.0,0.0
300.0,-300.0,0.0,0.0
300.0,-300.0,0.0,0.0
300.0,-300.0,0.0,0.0
300.0,-300.0,0.0,0.0
300.0,-300.0,0.0,0.0
300.0,-300.0,0.0,0.0
300.0,-300.0,0.0,0.0
300.0,-300.0,0.0,0.0
300.0,-300.0,0.0,0.0
300.0,-300.0,0.0,0.0
300.0,-300.0,0.0,0.0
300.0,-300.0,0.0,0.0
300.0,-300.0,0.0,0.0
300.0,-300.0,0.0,0.0
300.0,-300.0,0.0,0.0
300.0,-300.0,0.0,0.0
300.0,-300.0,0.0,0.0
300.0,-300.0,0.0,0.0
300.0,-300.0,0.0,0.0
300.0,-300.0,0.0,0.0
300.0,-300.0,0.0,0.0
300.0,-300.0,0.0,0.0
300.0,-300.0,0.0,0.0
300.0,-300.0,0.0,0.0
300.0,-300.0,0.0,0.0
300.0,-300.0,0.0,0.0
300.0,-300.0,0.0,0.0
300.0,-300.0,0.0,0.0
300.0,-300.0,0.0,0.0
300.0,-300.0,0.0,0.0
300.0,-300.0,0.0,0.0
300.0,-300.0,0.0,0.0
300.0,-300.0,0.0,0.0
300.0,-300.0,0.0,0.0
300.0,-300.0,0.0,0.0
300.0,-300.0,0.0,0.0
300.0,-300.0,0.0,0.0
300.0,-300.0,0.0,0.0
300.0,-300.0,0.0,0.0
300.0,-300.0,0.0,0.0
300.0,-300.0,0.0,0.0
300.0,-300.0,0.0,0.0
300.0,-300.0,0.0,0.0
300.0,-300.0,0.0,0.0
300.0,-300.0,0.0,0.0
300.0,-300.0,0.0,0.0
300.0,-300.0,0.0,0.0
300.0,-300.0,0.0,0.0
300.0,-300.0,0.0,0.0
300.0,-300.0,0.0,0.0
300.0,-300.0,0.0,0.0
300.0,-300.0,0.0,0.0
300.0,-300.0,0.0,0.0
300.0,-300.0,0.0,0.0
300.0,-300.0,0.0,0.0
300.0,-300.0,0.0,0.0
300.0,-300.0,0.0,0.0
300.0,-300.0,0.0,0.0
300.0,-300.0,0.0,0.0
300.0,-300.0,0.0,0.0
300.0,-300.0,0.0,0.0
300.0,-300.0,0.0,0.0
300.0,-300.0,0.0,0.0
300.0,-300.0,0.0,0.0
300.0,-300.0,0.0,0.0
300.0,-300.0,0.0,0.0
300.0,-300.0,0.0,0.0
300.0,-300.0,0.0,0.0
300.0,-300.0,0.0,0.0
300.0,-300.0,0.0,0.0
300.0,-300.0,0.0,0.0
300.0,-300.0,0.0,0.0
300.0,-300.0,0.0,0.0
300.0,-300.0,0.0,0.0
300.0,-300.0,0.0,0.0
300.0,-300.0,0.0,0.0
300.0,-300.0,0.0,0.0
300.0,-300.0,0.0,0.0
300.0,-300.0,0.0,0.0
300.0,-300.0,0.0,0.0
300.0,-300.0,0.0,0.0
300.0,-300.0,0.0,0.0
300.0,-300.0,0.0,0.0
300.0,-300.0,0.0,0.0
300.0,-300.0,0.0,0.0
300.0,-300.0,0.0,0.0
300.0,-300.0,0.0,0.0
300.0,-300.0,0.0,0.0
300.0,-300.0,0.0,0.0
300.0,-300.0,0.0,0.0
300.0,-300.0,0.0,0.0
300.0,-300.0,0.0,0.0
300.0,-300.0,0.0,0.0
300.0,-300.0,0.0,0.0
300.0,-300.0,0.0,0.0
300.0,-300.0,0.0,0.0
300.0,-300.0,0.0,0.0
300.0,-300.0,0.0,0.0
300.0,-300.0,0.0,0.0
300.0,-300.0,0.0,0.0
300.0,-300.0,0.0,0.0
300.0,-300.0,0.0,0.0
300.0,-300.0,0.0,0.0
300.0,-300.0,0.0,0.0
300.0,-300.0,0.0,0.0
300.0,-300.0,0.0,0.0
300.0,-300.0,0.0,0.0
300.0,-300.0,0.0,0.0
300.0,-300.0,0.0,0.0
300.0,-300.0,0.0,0.0
300.0,-300.0,0.0,0.0
300.0,-300.0,0.0,0.0
300.0,-300.0,0.0,0.0
300.0,-300.0,0.0,0.0
300.0,-300.0,0.0,0.0
300.0,-300.0,0.0,0.0
300.0,-300.0,0.0,0.0
300.0,-300.0,0.0,0.0
300.0,-300.0,0.0,0.0
300.0,-300.0,0.0,0.0
300.0,-300.0,0.0,0.0
300.0,-300.0,0.0,0.0
300.0,-300.0,0.0,0.0
300.0,-300.0,0.0,0.0
300.0,-300.0,0.0,0.0
300.0,-300.0,0.0,0.0
300.0,-300.0,0.0,0.0
300.0,-300.0,0.0,0.0
300.0,-300.0,0.0,0.0
300.0,-300.0,0.0,0.0
300.0,-300.0,0.0,0.0
300.0,-300.0,0.0,0.0
300.0,-300.0,0.0,0.0
300.0,-300.0,0.0,0.0
300.0,-300.0,0.0,0.0
300.0,-300.0,0.0,0.0
300.0,-300.0,0.0,0.0
300.0,-300.0,0.0,0.0
300.0,-300.0,0.0,0.0
300.0,-300.0,0.0,0.0
300.0,-300.0,0.0,0.0
300.0,-300.0,0.0,0.0
300.0,-300.0,0.0,0.0
300.0,-300.0,0.0,0.0
300.0,-300.0,0.0,0.0
300.0,-300.0,0.0,0.0
300.0,-300.0,0.0,0.0
300.0,-300.0,0.0,0.0
300.0,-300.0,0.0,0.0
300.0,-300.0,0.0,0.0
300.0,-300.0,0.0,0.0
300.0,-300.0,0.0,0.0
300.0,-300.0,0.0,0.0
300.0,-300.0,0.0,0.0
300.0,-300.0,0.0,0.0
300.0,-300.0,0.0,0.0
300.0,-300.0,0.0,0.0
300.0,-300.0,0.0,0.0
300.0,-300.0,0.0,0.0
300.0,-300.0,0.0,0.0
300.0,-300.0,0.0,0.0
300.0,-300.0,0.0,0.0
300.0,-300.0,0.0,0.0
300.0,-300.0,0.0,0.0
300.0,-300.0,0.0,0.0
300.0,-300.0,0.0,0.0
300.0,-300.0,0.0,0.0
300.0,-300.0,0.0,0.0
300.0,-300.0,0.0,0.0
300.0,-300.0,0.0,0.0
300.0,-300.0,0.0,0.0
300.0,-300.0,0.0,0.0
300.0,-300.0,0.0,0.0
300.0,-300.0,0.0,0.0
300.0,-300.0,0.0,0.0
300.0,-300.0,0.0,0.0
300.0,-300.0,0.0,0.0
300.0,-300.0,0.0,0.0
300.0,-300.0,0.0,0.0
300.0,-300.0,0.0,0.0
300.0,-300.0,0.0,0.0
300.0,-300.0,0.0,0.0
300.0,-300.0,0.0,0.0
300.0,-300.0,0.0,0.0
300.0,-300.0,0.0,0.0
300.0,-300.0,0.0,0.0
300.0,-300.0,0.0,0.0
300.0,-300.0,0.0,0.0
300.0,-300.0,0.0,0.0
300.0,-300.0,0.0,0.0
300.0,-300.0,0.0,0.0
300.0,-300.0,0.0,0.0
300.0,-300.0,0.0,0.0
300.0,-300.0,0.0,0.0
300.0,-300.0,0.0,0.0
300.0,-300.0,0.0,0.0
300.0,-300.0,0.0,0.0
300.0,-300.0,0.0,0.0
300.0,-300.0,0.0,0.0
300.0,-300.0,0.0,0.0
300.0,-300.0,0.0,0.0
300.0,-300.0,0.0,0.0
300.0,-300.0,0.0,0.0
300.0,-300.0,0.0,0.0
300.0,-300.0,0.0,0.0
300.0,-300.0,0.0,0.0
300.0,-300.0,0.0,0.0
300.0,-300.0,0.0,0.0
300.0,-300.0,0.0,0.0
300.0,-300.0,0.0,0.0
300.0,-300.0,0.0,0.0
300.0,-300.0,0.0,0.0
300.0,-300.0,0.0,0.0
300.0,-300.0,0.0,0.0
300.0,-300.0,0.0,0.0
300.0,-300.0,0.0,0.0
300.0,-300.0,0.0,0.0
300.0,-300.0,0.0,0.0
300.0,-300.0,0.0,0.0
300.0,-300.0,0.0,0.0
300.0,-300.0,0.0,0.0
300.0,-300.0,0.0,0.0
300.0,-300.0,0.0,0.0
300.0,-300.0,0.0,0.0
300.0,-300.0,0.0,0.0
300.0,-300.0,0.0,0.0
300.0,-300.0,0.0,0.0
300.0,-300.0,0.0,0.0
300.0,-300.0,0.0,0.0
300.0,-300.0,0.0,0.0
300.0,-300.0,0.0,0.0
300.0,-300.0,0.0,0.0
300.0,-300.0,0.0,0.0
300.0,-300.0,0.0,0.0
300.0,-300.0,0.0,0.0
300.0,-300.0,0.0,0.0
300.0,-300.0,0.0,0.0
300.0,-300.0,0.0,0.0
300.0,-300.0,0.0,0.0
300.0,-300.0,0.0,0.0
300.0,-300.0,0.0,0.0
300.0,-300.0,0.0,0.0
300.0,-300.0,0.0,0.0
300.0,-300.0,0.0,0.0
300.0,-300.0,0.0,0.0
300.0,-300.0,0.0,0.0
300.0,-300.0,0.0,0.0
300.0,-300.0,0.0,0.0
300.0,-300.0,0.0,0.0
300.0,-300.0,0.0,0.0
300.0,-300.0,0.0,0.0
300.0,-300.0,0.0,0.0
300.0,-300.0,0.0,0.0
300.0,-300.0,0.0,0.0
300.0,-300.0,0.0,0.0
300.0,-300.0,0.0,0.0
300.0,-300.0,0.0,0.0
300.0,-300.0,0.0,0.0
300.0,-300.0,0.0,0.0
300.0,-300.0,0.0,0.0
300.0,-300.0,0.0,0.0
300.0,-300.0,0.0,0.0
300.0,-300.0,0.0,0.0
300.0,-300.0,0.0,0.0
300.0,-300.0,0.0,0.0
300.0,-300.0,0.0,0.0
300.0,-300.0,0.0,0.0
300.0,-300.0,0.0,0.0
300.0,-300.0,0.0,0.0
300.0,-300.0,0.0,0.0
300.0,-300.0,0.0,0.0
300.0,-300.0,0.0,0.0
300.0,-300.0,0.0,0.0
300.0,-300.0,0.0,0.0
300.0,-300.0,0.0,0.0
300.0,-300.0,0.0,0.0
300.0,-300.0,0.0,0.0
300.0,-300.0,0.0,0.0
300.0,-300.0,0.0,0.0
300.0,-300.0,0.0,0.0
300.0,-300.0,0.0,0.0
300.0,-300.0,0.0,0.0
300.0,-300.0,0.0,0.0
300.0,-300.0,0.0,0.0
300.0,-300.0,0.0,0.0
300.0,-300.0,0.0,0.0
300.0,-300.0,0.0,0.0
300.0,-300.0,0.0,0.0
300.0,-300.0,0.0,0.0
300.0,-300.0,0.0,0.0
300.0,-300.0,0.0,0.0
300.0,-300.0,0.0,0.0
300.0,-300.0,0.0,0.0
300.0,-300.0,0.0,0.0
300.0,-300.0,0.0,0.0
300.0,-300.0,0.0,0.0
300.0,-300.0,0.0,0.0
300.0,-300.0,0.0,0.0
300.0,-300.0,0.0,0.0
300.0,-300.0,0.0,0.0
300.0,-300.0,0.0,0.0
300.0,-300.0,0.0,0.0
300.0,-300.0,0.0,0.0
300.0,-300.0,0.0,0.0
300.0,-300.0,0.0,0.0
300.0,-300.0,0.0,0.0
300.0,-300.0,0.0,0.0
300.0,-300.0,0.0,0.0
300.0,-300.0,0.0,0.0
300.0,-300.0,0.0,0.0
300.0,-300.0,0.0,0.0
300.0,-300.0,0.0,0.0
300.0,-300.0,0.0,0.0
300.0,-300.0,0.0,0.0
300.0,-300.0,0.0,0.0
300.0,-300.0,0.0,0.0
300.0,-300.0,0.0,0.0
300.0,-300.0,0.0,0.0
300.0,-300.0,0.0,0.0
300.0,-300.0,0.0,0.0
300.0,-300.0,0.0,0.0
300.0,-300.0,0.0,0.0
300.0,-300.0,0.0,0.0
300.0,-300.0,0.0,0.0
300.0,-300.0,0.0,0.0
300.0,-300.0,0.0,0.0
300.0,-300.0,0.0,0.0
300.0,-300.0,0.0,0.0
300.0,-300.0,0.0,0.0
300.0,-300.0,0.0,0.0
300.0,-300.0,0.0,0.0
300.0,-300.0,0.0,0.0
300.0,-300.0,0.0,0.0
300.0,-300.0,0.0,0.0
300.0,-300.0,0.0,0.0
300.0,-300.0,0.0,0.0
300.0,-300.0,0.0,0.0
300.0,-300.0,0.0,0.0
300.0,-300.0,0.0,0.0
300.0,-300.0,0.0,0.0
300.0,-300.0,0.0,0.0
300.0,-300.0,0.0,0.0
300.0,-300.0,0.0,0.0
300.0,-300.0,0.0,0.0
300.0,-300.0,0.0,0.0
300.0,-300.0,0.0,0.0
300.0,-300.0,0.0,0.0
300.0,-300.0,0.0,0.0
300.0,-300.0,0.0,0.0
300.0,-300.0,0.0,0.0
300.0,-300.0,0.0,0.0
300.0,-300.0,0.0,0.0
300.0,-300.0,0.0,0.0
300.0,-300.0,0.0,0.0
300.0,-300.0,0.0,0.0
300.0,-300.0,0.0,0.0
300.0,-300.0,0.0,0.0
300.0,-300.0,0.0,0.0
300.0,-300.0,0.0,0.0
300.0,-300.0,0.0,0.0
300.0,-300.0,0.0,0.0
300.0,-300.0,0.0,0.0
300.0,-300.0,0.0,0.0
300.0,-300.0,0.0,0.0
300.0,-300.0,0.0,0.0
300.0,-300.0,0.0,0.0
300.0,-300.0,0.0,0.0
300.0,-300.0,0.0,0.0
300.0,-300.0,0.0,0.0
300.0,-300.0,0.0,0.0
300.0,-300.0,0.0,0.0
300.0,-300.0,0.0,0.0
300.0,-300.0,0.0,0.0
300.0,-300.0,0.0,0.0
300.0,-300.0,0.0,0.0
300.0,-300.0,0.0,0.0
300.0,-300.0,0.0,0.0
300.0,-300.0,0.0,0.0
300.0,-300.0,0.0,0.0
300.0,-300.0,0.0,0.0
300.0,-300.0,0.0,0.0
300.0,-300.0,0.0,0.0
300.0,-300.0,0.0,0.0
300.0,-300.0,0.0,0.0
300.0,-300.0,0.0,0.0
300.0,-300.0,0.0,0.0
300.0,-300.0,0.0,0.0
300.0,-300.0,0.0,0.0
300.0,-300.0,0.0,0.0
300.0,-300.0,0.0,0.0
300.0,-300.0,0.0,0.0
300.0,-300.0,0.0,0.0
300.0,-300.0,0.0,0.0
300.0,-300.0,0.0,0.0
300.0,-300.0,0.0,0.0
300.0,-300.0,0.0,0.0
300.0,-300.0,0.0,0.0
300.0,-300.0,0.0,0.0
300.0,-300.0,0.0,0.0
300.0,-300.0,0.0,0.0
300.0,-300.0,0.0,0.0
300.0,-300.0,0.0,0.0
300.0,-300.0,0.0,0.0
300.0,-300.0,0.0,0.0
300.0,-300.0,0.0,0.0
300.0,-300.0,0.0,0.0
300.0,-300.0,0.0,0.0
300.0,-300.0,0.0,0.0
300.0,-300.0,0.0,0.0
300.0,-300.0,0.0,0.0
300.0,-300.0,0.0,0.0
300.0,-300.0,0.0,0.0
300.0,-300.0,0.0,0.0
300.0,-300.0,0.0,0.0
300.0,-300.0,0.0,0.0
300.0,-300.0,0.0,0.0
300.0,-300.0,0.0,0.0
300.0,-300.0,0.0,0.0
300.0,-300.0,0.0,0.0
300.0,-300.0,0.0,0.0
300.0,-300.0,0.0,0.0
300.0,-300.0,0.0,0.0
300.0,-300.0,0.0,0.0
300.0,-300.0,0.0,0.0
300.0,-300.0,0.0,0.0
300.0,-300.0,0.0,0.0
300.0,-300.0,0.0,0.0
300.0,-300.0,0.0,0.0
300.0,-300.0,0.0,0.0
300.0,-300.0,0.0,0.0
300.0,-300.0,0.0,0.0
300.0,-300.0,0.0,0.0
300.0,-300.0,0.0,0.0
300.0,-300.0,0.0,0.0
300.0,-300.0,0.0,0.0
300.0,-300.0,0.0,0.0
300.0,-300.0,0.0,0.0
300.0,-300.0,0.0,0.0
300.0,-300.0,0.0,0.0
300.0,-300.0,0.0,0.0
300.0,-300.0,0.0,0.0
300.0,-300.0,0.0,0.0
300.0,-300.0,0.0,0.0
300.0,-300.0,0.0,0.0
300.0,-300.0,0.0,0.0
300.0,-300.0,0.0,0.0
300.0,-300.0,0.0,0.0
300.0,-300.0,0.0,0.0
300.0,-300.0,0.0,0.0
300.0,-300.0,0.0,0.0
300.0,-300.0,0.0,0.0
300.0,-300.0,0.0,0.0
300.0,-300.0,0.0,0.0
300.0,-300.0,0.0,0.0
300.0,-300.0,0.0,0.0
300.0,-300.0,0.0,0.0
300.0,-300.0,0.0,0.0
300.0,-300.0,0.0,0.0
300.0,-300.0,0.0,0.0
300.0,-300.0,0.0,0.0
300.0,-300.0,0.0,0.0
300.0,-300.0,0.0,0.0
300.0,-300.0,0.0,0.0
300.0,-300.0,0.0,0.0
300.0,-300.0,0.0,0.0
300.0,-300.0,0.0,0.0
300.0,-300.0,0.0,0.0
300.0,-300.0,0.0,0.0
300.0,-300.0,0.0,0.0
300.0,-300.0,0.0,0.0
300.0,-300.0,0.0,0.0
300.0,-300.0,0.0,0.0
300.0,-300.0,0.0,0.0
300.0,-300.0,0.0,0.0
300.0,-300.0,0.0,0.0
300.0,-300.0,0.0,0.0
300.0,-300.0,0.0,0.0
300.0,-300.0,0.0,0.0
300.0,-300.0,0.0,0.0
300.0,-300.0,0.0,0.0
300.0,-300.0,0.0,0.0
300.0,-300.0,0.0,0.0
300.0,-300.0,0.0,0.0
300.0,-300.0,0.0,0.0
300.0,-300.0,0.0,0.0
300.0,-300.0,0.0,0.0
300.0,-300.0,0.0,0.0
300.0,-300.0,0.0,0.0
300.0,-300.0,0.0,0.0
300.0,-300.0,0.0,0.0
300.0,-300.0,0.0,0.0
300.0,-300.0,0.0,0.0
300.0,-300.0,0.0,0.0
300.0,-300.0,0.0,0.0
300.0,-300.0,0.0,0.0
300.0,-300.0,0.0,0.0
300.0,-300.0,0.0,0.0
300.0,-300.0,0.0,0.0
300.0,-300.0,0.0,0.0
300.0,-300.0,0.0,0.0
300.0,-300.0,0.0,0.0
300.0,-300.0,0.0,0.0
300.0,-300.0,0.0,0.0
300.0,-300.0,0.0,0.0
300.0,-300.0,0.0,0.0
300.0,-300.0,0.0,0.0
300.0,-300.0,0.0,0.0
300.0,-300.0,0.0,0.0
300.0,-300.0,0.0,0.0
300.0,-300.0,0.0,0.0
300.0,-300.0,0.0,0.0
300.0,-300.0,0.0,0.0
300.0,-300.0,0.0,0.0
300.0,-300.0,0.0,0.0
300.0,-300.0,0.0,0.0
300.0,-300.0,0.0,0.0
300.0,-300.0,0.0,0.0
300.0,-300.0,0.0,0.0
300.0,-300.0,0.0,0.0
300.0,-300.0,0.0,0.0
300.0,-300.0,0.0,0.0
300.0,-300.0,0.0,0.0
300.0,-300.0,0.0,0.0
300.0,-300.0,0.0,0.0
300.0,-300.0,0.0,0.0
300.0,-300.0,0.0,0.0
300.0,-300.0,0.0,0.0
300.0,-300.0,0.0,0.0
300.0,-300.0,0.0,0.0
300.0,-300.0,0.0,0.0
300.0,-300.0,0.0,0.0
300.0,-300.0,0.0,0.0
300.0,-300.0,0.0,0.0
300.0,-300.0,0.0,0.0
300.0,-300.0,0.0,0.0
300.0,-300.0,0.0,0.0
300.0,-300.0,0.0,0.0
300.0,-300.0,0.0,0.0
300.0,-300.0,0.0,0.0
300.0,-300.0,0.0,0.0
300.0,-300.0,0.0,0.0
300.0,-300.0,0.0,0.0
300.0,-300.0,0.0,0.0
300.0,-300.0,0.0,0.0
300.0,-300.0,0.0,0.0
300.0,-300.0,0.0,0.0
300.0,-300.0,0.0,0.0
300.0,-300.0,0.0,0.0
300.0,-300.0,0.0,0.0
300.0,-300.0,0.0,0.0
300.0,-300.0,0.0,0.0
300.0,-300.0,0.0,0.0
300.0,-300.0,0.0,0.0
300.0,-300.0,0.0,0.0
300.0,-300.0,0.0,0.0
300.0,-300.0,0.0,0.0
300.0,-300.0,0.0,0.0
300.0,-300.0,0.0,0.0
300.0,-300.0,0.0,0.0
300.0,-300.0,0.0,0.0
300.0,-300.0,0.0,0.0
300.0,-300.0,0.0,0.0
300.0,-300.0,0.0,0.0
300.0,-300.0,0.0,0.0
300.0,-300.0,0.0,0.0
300.0,-300.0,0.0,0.0
300.0,-300.0,0.0,0.0
300.0,-300.0,0.0,0.0
300.0,-300.0,0.0,0.0
300.0,-300.0,0.0,0.0
300.0,-300.0,0.0,0.0
300.0,-300.0,0.0,0.0
300.0,-300.0,0.0,0.0
300.0,-300.0,0.0,0.0
300.0,-300.0,0.0,0.0
300.0,-300.0,0.0,0.0
300.0,-300.0,0.0,0.0
300.0,-300.0,0.0,0.0
300.0,-300.0,0.0,0.0
300.0,-300.0,0.0,0.0
300.0,-300.0,0.0,0.0
300.0,-300.0,0.0,0.0
300.0,-300.0,0.0,0.0
300.0,-300.0,0.0,0.0
300.0,-300.0,0.0,0.0
300.0,-300.0,0.0,0.0
300.0,-300.0,0.0,0.0
300.0,-300.0,0.0,0.0
300.0,-300.0,0.0,0.0
300.0,-300.0,0.0,0.0
300.0,-300.0,0.0,0.0
300.0,-300.0,0.0,0.0
300.0,-300.0,0.0,0.0
300.0,-300.0,0.0,0.0
300.0,-300.0,0.0,0.0
300.0,-300.0,0.0,0.0
300.0,-300.0,0.0,0.0
300.0,-300.0,0.0,0.0
300.0,-300.0,0.0,0.0
300.0,-300.0,0.0,0.0
300.0,-300.0,0.0,0.0
300.0,-300.0,0.0,0.0
300.0,-300.0,0.0,0.0
300.0,-300.0,0.0,0.0
300.0,-300.0,0.0,0.0
300.0,-300.0,0.0,0.0
300.0,-300.0,0.0,0.0
300.0,-300.0,0.0,0.0
300.0,-300.0,0.0,0.0
300.0,-300.0,0.0,0.0
300.0,-300.0,0.0,0.0
300.0,-300.0,0.0,0.0
300.0,-300.0,0.0,0.0
300.0,-300.0,0.0,0.0
300.0,-300.0,0.0,0.0
300.0,-300.0,0.0,0.0
300.0,-300.0,0.0,0.0
300.0,-300.0,0.0,0.0
300.0,-300.0,0.0,0.0
300.0,-300.0,0.0,0.0
300.0,-300.0,0.0,0.0
300.0,-300.0,0.0,0.0
300.0,-300.0,0.0,0.0
300.0,-300.0,0.0,0.0
300.0,-300.0,0.0,0.0
300.0,-300.0,0.0,0.0
300.0,-300.0,0.0,0.0
300.0,-300.0,0.0,0.0
300.0,-300.0,0.0,0.0
300.0,-300.0,0.0,0.0
300.0,-300.0,0.0,0.0
300.0,-300.0,0.0,0.0
300.0,-300.0,0.0,0.0
300.0,-300.0,0.0,0.0
300.0,-300.0,0.0,0.0
300.0,-300.0,0.0,0.0
300.0,-300.0,0.0,0.0
300.0,-300.0,0.0,0.0
300.0,-300.0,0.0,0.0
300.0,-300.0,0.0,0.0
300.0,-300.0,0.0,0.0
300.0,-300.0,0.0,0.0
300.0,-300.0,0.0,0.0
300.0,-300.0,0.0,0.0
300.0,-300.0,0.0,0.0
300.0,-300.0,0.0,0.0
300.0,-300.0,0.0,0.0
300.0,-300.0,0.0,0.0
300.0,-300.0,0.0,0.0
300.0,-300.0,0.0,0.0
300.0,-300.0,0.0,0.0
300.0,-300.0,0.0,0.0
300.0,-300.0,0.0,0.0
300.0,-300.0,0.0,0.0
300.0,-300.0,0.0,0.0
300.0,-300.0,0.0,0.0
300.0,-300.0,0.0,0.0
300.0,-300.0,0.0,0.0
300.0,-300.0,0.0,0.0
300.0,-300.0,0.0,0.0
300.0,-300.0,0.0,0.0
300.0,-300.0,0.0,0.0
300.0,-300.0,0.0,0.0
300.0,-300.0,0.0,0.0
300.0,-300.0,0.0,0.0
300.0,-300.0,0.0,0.0
300.0,-300.0,0.0,0.0
300.0,-300.0,0.0,0.0
300.0,-300.0,0.0,0.0
300.0,-300.0,0.0,0.0
300.0,-300.0,0.0,0.0
300.0,-300.0,0.0,0.0
300.0,-300.0,0.0,0.0
300.0,-300.0,0.0,0.0
300.0,-300.0,0.0,0.0
300.0,-300.0,0.0,0.0
300.0,-300.0,0.0,0.0
300.0,-300.0,0.0,0.0
300.0,-300.0,0.0,0.0
300.0,-300.0,0.0,0.0
300.0,-300.0,0.0,0.0
300.0,-300.0,0.0,0.0
300.0,-300.0,0.0,0.0
300.0,-300.0,0.0,0.0
300.0,-300.0,0.0,0.0
300.0,-300.0,0.0,0.0
300.0,-300.0,0.0,0.0
300.0,-300.0,0.0,0.0
300.0,-300.0,0.0,0.0
300.0,-300.0,0.0,0.0
300.0,-300.0,0.0,0.0
300.0,-300.0,0.0,0.0
300.0,-300.0,0.0,0.0
300.0,-300.0,0.0,0.0
300.0,-300.0,0.0,0.0
300.0,-300.0,0.0,0.0
300.0,-300.0,0.0,0.0
300.0,-300.0,0.0,0.0
300.0,-300.0,0.0,0.0
300.0,-300.0,0.0,0.0
300.0,-300.0,0.0,0.0
300.0,-300.0,0.0,0.0
300.0,-300.0,0.0,0.0
300.0,-300.0,0.0,0.0
300.0,-300.0,0.0,0.0
300.0,-300.0,0.0,0.0
300.0,-300.0,0.0,0.0
300.0,-300.0,0.0,0.0
300.0,-300.0,0.0,0.0
300.0,-300.0,0.0,0.0
300.0,-300.0,0.0,0.0
300.0,-300.0,0.0,0.0
300.0,-300.0,0.0,0.0
300.0,-300.0,0.0,0.0
300.0,-300.0,0.0,0.0
300.0,-300.0,0.0,0.0
300.0,-300.0,0.0,0.0
300.0,-300.0,0.0,0.0
300.0,-300.0,0.0,0.0
300.0,-300.0,0.0,0.0
300.0,-300.0,0.0,0.0
300.0,-300.0,0.0,0.0
300.0,-300.0,0.0,0.0
300.0,-300.0,0.0,0.0
300.0,-300.0,0.0,0.0
300.0,-300.0,0.0,0.0
300.0,-300.0,0.0,0.0
300.0,-300.0,0.0,0.0
300.0,-300.0,0.0,0.0
300.0,-300.0,0.0,0.0
300.0,-300.0,0.0,0.0
300.0,-300.0,0.0,0.0
300.0,-300.0,0.0,0.0
300.0,-300.0,0.0,0.0
300.0,-300.0,0.0,0.0
300.0,-300.0,0.0,0.0
300.0,-300.0,0.0,0.0
300.0,-300.0,0.0,0.0
300.0,-300.0,0.0,0.0
300.0,-300.0,0.0,0.0
300.0,-300.0,0.0,0.0
300.0,-300.0,0.0,0.0
300.0,-300.0,0.0,0.0
300.0,-300.0,0.0,0.0
300.0,-300.0,0.0,0.0
300.0,-300.0,0.0,0.0
300.0,-300.0,0.0,0.0
300.0,-300.0,0.0,0.0
300.0,-300.0,0.0,0.0
300.0,-300.0,0.0,0.0
300.0,-300.0,0.0,0.0
300.0,-300.0,0.0,0.0
300.0,-300.0,0.0,0.0
300.0,-300.0,0.0,0.0
300.0,-300.0,0.0,0.0
300.0,-300.0,0.0,0.0
300.0,-300.0,0.0,0.0
300.0,-300.0,0.0,0.0
300.0,-300.0,0.0,0.0
300.0,-300.0,0.0,0.0
300.0,-300.0,0.0,0.0
300.0,-300.0,0.0,0.0
300.0,-300.0,0.0,0.0
300.0,-300.0,0.0,0.0
300.0,-300.0,0.0,0.0
300.0,-300.0,0.0,0.0
300.0,-300.0,0.0,0.0
300.0,-300.0,0.0,0.0
300.0,-300.0,0.0,0.0
300.0,-300.0,0.0,0.0
300.0,-300.0,0.0,0.0
300.0,-300.0,0.0,0.0
300.0,-300.0,0.0,0.0
300.0,-300.0,0.0,0.0
300.0,-300.0,0.0,0.0
300.0,-300.0,0.0,0.0
300.0,-300.0,0.0,0.0
300.0,-300.0,0.0,0.0
300.0,-300.0,0.0,0.0
300.0,-300.0,0.0,0.0
300.0,-300.0,0.0,0.0
300.0,-300.0,0.0,0.0
300.0,-300.0,0.0,0.0
300.0,-300.0,0.0,0.0
300.0,-300.0,0.0,0.0
300.0,-300.0,0.0,0.0
300.0,-300.0,0.0,0.0
300.0,-300.0,0.0,0.0
300.0,-300.0,0.0,0.0
300.0,-300.0,0.0,0.0
300.0,-300.0,0.0,0.0
300.0,-300.0,0.0,0.0
300.0,-300.0,0.0,0.0
300.0,-300.0,0.0,0.0
300.0,-300.0,0.0,0.0
300.0,-300.0,0.0,0.0
300.0,-300.0,0.0,0.0
300.0,-300.0,0.0,0.0
300.0,-300.0,0.0,0.0
300.0,-300.0,0.0,0.0
300.0,-300.0,0.0,0.0
300.0,-300.0,0.0,0.0
300.0,-300.0,0.0,0.0
300.0,-300.0,0.0,0.0
300.0,-300.0,0.0,0.0
300.0,-300.0,0.0,0.0
300.0,-300.0,0.0,0.0
300.0,-300.0,0.0,0.0
300.0,-300.0,0.0,0.0
300.0,-300.0,0.0,0.0
300.0,-300.0,0.0,0.0
300.0,-300.0,0.0,0.0
300.0,-300.0,0.0,0.0
300.0,-300.0,0.0,0.0
300.0,-300.0,0.0,0.0
300.0,-300.0,0.0,0.0
300.0,-300.0,0.0,0.0
300.0,-300.0,0.0,0.0
300.0,-300.0,0.0,0.0
300.0,-300.0,0.0,0.0
300.0,-300.0,0.0,0.0
300.0,-300.0,0.0,0.0
300.0,-300.0,0.0,0.0
300.0,-300.0,0.0,0.0
300.0,-300.0,0.0,0.0
300.0,-300.0,0.0,0.0
300.0,-300.0,0.0,0.0
300.0,-300.0,0.0,0.0
300.0,-300.0,0.0,0.0
300.0,-300.0,0.0,0.0
300.0,-300.0,0.0,0.0
300.0,-300.0,0.0,0.0
300.0,-300.0,0.0,0.0
300.0,-300.0,0.0,0.0
300.0,-300.0,0.0,0.0
300.0,-300.0,0.0,0.0
300.0,-300.0,0.0,0.0
300.0,-300.0,0.0,0.0
300.0,-300.0,0.0,0.0
300.0,-300.0,0.0,0.0
300.0,-300.0,0.0,0.0
300.0,-300.0,0.0,0.0
300.0,-300.0,0.0,0.0
300.0,-300.0,0.0,0.0
300.0,-300.0,0.0,0.0
300.0,-300.0,0.0,0.0
300.0,-300.0,0.0,0.0
300.0,-300.0,0.0,0.0
300.0,-300.0,0.0,0.0
300.0,-300.0,0.0,0.0
300.0,-300.0,0.0,0.0
300.0,-300.0,0.0,0.0
300.0,-300.0,0.0,0.0
300.0,-300.0,0.0,0.0
300.0,-300.0,0.0,0.0
300.0,-300.0,0.0,0.0
300.0,-300.0,0.0,0.0
300.0,-300.0,0.0,0.0
300.0,-300.0,0.0,0.0
300.0,-300.0,0.0,0.0
300.0,-300.0,0.0,0.0
300.0,-300.0,0.0,0.0
300.0,-300.0,0.0,0.0
300.0,-300.0,0.0,0.0
300.0,-300.0,0.0,0.0
300.0,-300.0,0.0,0.0
300.0,-300.0,0.0,0.0
300.0,-300.0,0.0,0.0
300.0,-300.0,0.0,0.0
300.0,-300.0,0.0,0.0
300.0,-300.0,0.0,0.0
300.0,-300.0,0.0,0.0
300.0,-300.0,0.0,0.0
300.0,-300.0,0.0,0.0
300.0,-300.0,0.0,0.0
300.0,-300.0,0.0,0.0
300.0,-300.0,0.0,0.0
300.0,-300.0,0.0,0.0
300.0,-300.0,0.0,0.0
300.0,-300.0,0.0,0.0
300.0,-300.0,0.0,0.0
300.0,-300.0,0.0,0.0
300.0,-300.0,0.0,0.0
300.0,-300.0,0.0,0.0
300.0,-300.0,0.0,0.0
300.0,-300.0,0.0,0.0
300.0,-300.0,0.0,0.0
300.0,-300.0,0.0,0.0
300.0,-300.0,0.0,0.0
300.0,-300.0,0.0,0.0
300.0,-300.0,0.0,0.0
300.0,-300.0,0.0,0.0
300.0,-300.0,0.0,0.0
300.0,-300.0,0.0,0.0
300.0,-300.0,0.0,0.0
300.0,-300.0,0.0,0.0
300.0,-300.0,0.0,0.0
300.0,-300.0,0.0,0.0
300.0,-300.0,0.0,0.0
300.0,-300.0,0.0,0.0
300.0,-300.0,0.0,0.0
300.0,-300.0,0.0,0.0
300.0,-300.0,0.0,0.0
300.0,-300.0,0.0,0.0
300.0,-300.0,0.0,0.0
300.0,-300.0,0.0,0.0
300.0,-300.0,0.0,0.0
300.0,-300.0,0.0,0.0
300.0,-300.0,0.0,0.0
300.0,-300.0,0.0,0.0
300.0,-300.0,0.0,0.0
300.0,-300.0,0.0,0.0
300.0,-300.0,0.0,0.0
300.0,-300.0,0.0,0.0
300.0,-300.0,0.0,0.0
300.0,-300.0,0.0,0.0
300.0,-300.0,0.0,0.0
300.0,-300.0,0.0,0.0
300.0,-300.0,0.0,0.0
300.0,-300.0,0.0,0.0
300.0,-300.0,0.0,0.0
300.0,-300.0,0.0,0.0
300.0,-300.0,0.0,0.0
300.0,-300.0,0.0,0.0
300.0,-300.0,0.0,0.0
300.0,-300.0,0.0,0.0
300.0,-300.0,0.0,0.0
300.0,-300.0,0.0,0.0
300.0,-300.0,0.0,0.0
300.0,-300.0,0.0,0.0
300.0,-300.0,0.0,0.0
300.0,-300.0,0.0,0.0
300.0,-300.0,0.0,0.0
300.0,-300.0,0.0,0.0
300.0,-300.0,0.0,0.0
300.0,-300.0,0.0,0.0
300.0,-300.0,0.0,0.0
300.0,-300.0,0.0,0.0
300.0,-300.0,0.0,0.0
300.0,-300.0,0.0,0.0
300.0,-300.0,0.0,0.0
300.0,-300.0,0.0,0.0
300.0,-300.0,0.0,0.0
300.0,-300.0,0.0,0.0
300.0,-300.0,0.0,0.0
300.0,-300.0,0.0,0.0
300.0,-300.0,0.0,0.0
300.0,-300.0,0.0,0.0
300.0,-300.0,0.0,0.0
300.0,-300.0,0.0,0.0
300.0,-300.0,0.0,0.0
300.0,-300.0,0.0,0.0
300.0,-300.0,0.0,0.0
300.0,-300.0,0.0,0.0
300.0,-300.0,0.0,0.0
300.0,-300.0,0.0,0.0
300.0,-300.0,0.0,0.0
300.0,-300.0,0.0,0.0
300.0,-300.0,0.0,0.0
300.0,-300.0,0.0,0.0
300.0,-300.0,0.0,0.0
300.0,-300.0,0.0,0.0
300.0,-300.0,0.0,0.0
300.0,-300.0,0.0,0.0
300.0,-300.0,0.0,0.0
300.0,-300.0,0.0,0.0
300.0,-300.0,0.0,0.0
300.0,-300.0,0.0,0.0
300.0,-300.0,0.0,0.0
300.0,-300.0,0.0,0.0
300.0,-300.0,0.0,0.0
300.0,-300.0,0.0,0.0
300.0,-300.0,0.0,0.0
300.0,-300.0,0.0,0.0
300.0,-300.0,0.0,0.0
300.0,-300.0,0.0,0.0
300.0,-300.0,0.0,0.0
300.0,-300.0,0.0,0.0
300.0,-300.0,0.0,0.0
300.0,-300.0,0.0,0.0
300.0,-300.0,0.0,0.0
300.0,-300.0,0.0,0.0
300.0,-300.0,0.0,0.0
300.0,-300.0,0.0,0.0
300.0,-300.0,0.0,0.0
300.0,-300.0,0.0,0.0
300.0,-300.0,0.0,0.0
300.0,-300.0,0.0,0.0
300.0,-300.0,0.0,0.0
300.0,-300.0,0.0,0.0
300.0,-300.0,0.0,0.0
300.0,-300.0,0.0,0.0
300.0,-300.0,0.0,0.0
300.0,-300.0,0.0,0.0
300.0,-300.0,0.0,0.0
300.0,-300.0,0.0,0.0
300.0,-300.0,0.0,0.0
300.0,-300.0,0.0,0.0
300.0,-300.0,0.0,0.0
300.0,-300.0,0.0,0.0
300.0,-300.0,0.0,0.0
300.0,-300.0,0.0,0.0
300.0,-300.0,0.0,0.0
300.0,-300.0,0.0,0.0
300.0,-300.0,0.0,0.0
300.0,-300.0,0.0,0.0
300.0,-300.0,0.0,0.0
300.0,-300.0,0.0,0.0
300.0,-300.0,0.0,0.0
300.0,-300.0,0.0,0.0
300.0,-300.0,0.0,0.0
300.0,-300.0,0.0,0.0
300.0,-300.0,0.0,0.0
300.0,-300.0,0.0,0.0
300.0,-300.0,0.0,0.0
300.0,-300.0,0.0,0.0
300.0,-300.0,0.0,0.0
300.0,-300.0,0.0,0.0
300.0,-300.0,0.0,0.0
300.0,-300.0,0.0,0.0
300.0,-300.0,0.0,0.0
300.0,-300.0,0.0,0.0
300.0,-300.0,0.0,0.0
300.0,-300.0,0.0,0.0
300.0,-300.0,0.0,0.0
300.0,-300.0,0.0,0.0
300.0,-300.0,0.0,0.0
300.0,-300.0,0.0,0.0
300.0,-300.0,0.0,0.0
300.0,-300.0,0.0,0.0
300.0,-300.0,0.0,0.0
300.0,-300.0,0.0,0.0
300.0,-300.0,0.0,0.0
300.0,-300.0,0.0,0.0
300.0,-300.0,0.0,0.0
300.0,-300.0,0.0,0.0
300.0,-300.0,0.0,0.0
300.0,-300.0,0.0,0.0
300.0,-300.0,0.0,0.0
300.0,-300.0,0.0,0.0
300.0,-300.0,0.0,0.0
300.0,-300.0,0.0,0.0
300.0,-300.0,0.0,0.0
300.0,-300.0,0.0,0.0
300.0,-300.0,0.0,0.0
300.0,-300.0,0.0,0.0
300.0,-300.0,0.0,0.0
300.0,-300.0,0.0,0.0
300.0,-300.0,0.0,0.0
300.0,-300.0,0.0,0.0
300.0,-300.0,0.0,0.0
300.0,-300.0,0.0,0.0
300.0,-300.0,0.0,0.0
300.0,-300.0,0.0,0.0
300.0,-300.0,0.0,0.0
300.0,-300.0,0.0,0.0
300.0,-300.0,0.0,0.0
300.0,-300.0,0.0,0.0
300.0,-300.0,0.0,0.0
300.0,-300.0,0.0,0.0
300.0,-300.0,0.0,0.0
300.0,-300.0,0.0,0.0
300.0,-300.0,0.0,0.0
300.0,-300.0,0.0,0.0
300.0,-300.0,0.0,0.0
300.0,-300.0,0.0,0.0
300.0,-300.0,0.0,0.0
300.0,-300.0,0.0,0.0
300.0,-300.0,0.0,0.0
300.0,-300.0,0.0,0.0
300.0,-300.0,0.0,0.0
300.0,-300.0,0.0,0.0
300.0,-300.0,0.0,0.0
300.0,-300.0,0.0,0.0
300.0,-300.0,0.0,0.0
300.0,-300.0,0.0,0.0
300.0,-300.0,0.0,0.0
300.0,-300.0,0.0,0.0
300.0,-300.0,0.0,0.0
300.0,-300.0,0.0,0.0
300.0,-300.0,0.0,0.0
300.0,-300.0,0.0,0.0
300.0,-300.0,0.0,0.0
300.0,-300.0,0.0,0.0
300.0,-300.0,0.0,0.0
300.0,-300.0,0.0,0.0
300.0,-300.0,0.0,0.0
300.0,-300.0,0.0,0.0
300.0,-300.0,0.0,0.0
300.0,-300.0,0.0,0.0
300.0,-300.0,0.0,0.0
300.0,-300.0,0.0,0.0
300.0,-300.0,0.0,0.0
300.0,-300.0,0.0,0.0
300.0,-300.0,0.0,0.0
300.0,-300.0,0.0,0.0
300.0,-300.0,0.0,0.0
300.0,-300.0,0.0,0.0
300.0,-300.0,0.0,0.0
300.0,-300.0,0.0,0.0
300.0,-300.0,0.0,0.0
300.0,-300.0,0.0,0.0
300.0,-300.0,0.0,0.0
300.0,-300.0,0.0,0.0
300.0,-300.0,0.0,0.0
300.0,-300.0,0.0,0.0
300.0,-300.0,0.0,0.0
300.0,-300.0,0.0,0.0
300.0,-300.0,0.0,0.0
300.0,-300.0,0.0,0.0
300.0,-300.0,0.0,0.0
300.0,-300.0,0.0,0.0
300.0,-300.0,0.0,0.0
300.0,-300.0,0.0,0.0
300.0,-300.0,0.0,0.0
300.0,-300.0,0.0,0.0
300.0,-300.0,0.0,0.0
300.0,-300.0,0.0,0.0
300.0,-300.0,0.0,0.0
300.0,-300.0,0.0,0.0
300.0,-300.0,0.0,0.0
300.0,-300.0,0.0,0.0
300.0,-300.0,0.0,0.0
300.0,-300.0,0.0,0.0
300.0,-300.0,0.0,0.0
300.0,-300.0,0.0,0.0
300.0,-300.0,0.0,0.0
300.0,-300.0,0.0,0.0
300.0,-300.0,0.0,0.0
300.0,-300.0,0.0,0.0
300.0,-300.0,0.0,0.0
300.0,-300.0,0.0,0.0
300.0,-300.0,0.0,0.0
300.0,-300.0,0.0,0.0
300.0,-300.0,0.0,0.0
300.0,-300.0,0.0,0.0
300.0,-300.0,0.0,0.0
300.0,-300.0,0.0,0.0
300.0,-300.0,0.0,0.0
300.0,-300.0,0.0,0.0
300.0,-300.0,0.0,0.0
300.0,-300.0,0.0,0.0
300.0,-300.0,0.0,0.0
300.0,-300.0,0.0,0.0
300.0,-300.0,0.0,0.0
300.0,-300.0,0.0,0.0
300.0,-300.0,0.0,0.0
300.0,-300.0,0.0,0.0
300.0,-300.0,0.0,0.0
300.0,-300.0,0.0,0.0
300.0,-300.0,0.0,0.0
300.0,-300.0,0.0,0.0
300.0,-300.0,0.0,0.0
300.0,-300.0,0.0,0.0
300.0,-300.0,0.0,0.0
300.0,-300.0,0.0,0.0
300.0,-300.0,0.0,0.0
300.0,-300.0,0.0,0.0
300.0,-300.0,0.0,0.0
300.0,-300.0,0.0,0.0
300.0,-300.0,0.0,0.0
300.0,-300.0,0.0,0.0
300.0,-300.0,0.0,0.0
300.0,-300.0,0.0,0.0
300.0,-300.0,0.0,0.0
300.0,-300.0,0.0,0.0
300.0,-300.0,0.0,0.0
300.0,-300.0,0.0,0.0
300.0,-300.0,0.0,0.0
300.0,-300.0,0.0,0.0
300.0,-300.0,0.0,0.0
300.0,-300.0,0.0,0.0
300.0,-300.0,0.0,0.0
300.0,-300.0,0.0,0.0
300.0,-300.0,0.0,0.0
300.0,-300.0,0.0,0.0
300.0,-300.0,0.0,0.0
300.0,-300.0,0.0,0.0
300.0,-300.0,0.0,0.0
300.0,-300.0,0.0,0.0
300.0,-300.0,0.0,0.0
300.0,-300.0,0.0,0.0
300.0,-300.0,0.0,0.0
300.0,-300.0,0.0,0.0
300.0,-300.0,0.0,0.0
300.0,-300.0,0.0,0.0
300.0,-300.0,0.0,0.0
300.0,-300.0,0.0,0.0
300.0,-300.0,0.0,0.0
300.0,-300.0,0.0,0.0
300.0,-300.0,0.0,0.0
300.0,-300.0,0.0,0.0
300.0,-300.0,0.0,0.0
300.0,-300.0,0.0,0.0
300.0,-300.0,0.0,0.0
300.0,-300.0,0.0,0.0
300.0,-300.0,0.0,0.0
300.0,-300.0,0.0,0.0
300.0,-300.0,0.0,0.0
300.0,-300.0,0.0,0.0
300.0,-300.0,0.0,0.0
300.0,-300.0,0.0,0.0
300.0,-300.0,0.0,0.0
300.0,-300.0,0.0,0.0
300.0,-300.0,0.0,0.0
300.0,-300.0,0.0,0.0
300.0,-300.0,0.0,0.0
300.0,-300.0,0.0,0.0
300.0,-300.0,0.0,0.0
300.0,-300.0,0.0,0.0
300.0,-300.0,0.0,0.0
300.0,-300.0,0.0,0.0
300.0,-300.0,0.0,0.0
300.0,-300.0,0.0,0.0
300.0,-300.0,0.0,0.0
300.0,-300.0,0.0,0.0
300.0,-300.0,0.0,0.0
300.0,-300.0,0.0,0.0
300.0,-300.0,0.0,0.0
300.0,-300.0,0.0,0.0
300.0,-300.0,0.0,0.0
300.0,-300.0,0.0,0.0
300.0,-300.0,0.0,0.0
300.0,-300.0,0.0,0.0
300.0,-300.0,0.0,0.0
300.0,-300.0,0.0,0.0
300.0,-300.0,0.0,0.0
300.0,-300.0,0.0,0.0
300.0,-300.0,0.0,0.0
300.0,-300.0,0.0,0.0
300.0,-300.0,0.0,0.0
300.0,-300.0,0.0,0.0
300.0,-300.0,0.0,0.0
300.0,-300.0,0.0,0.0
300.0,-300.0,0.0,0.0
300.0,-300.0,0.0,0.0
300.0,-300.0,0.0,0.0
300.0,-300.0,0.0,0.0
300.0,-300.0,0.0,0.0
300.0,-300.0,0.0,0.0
300.0,-300.0,0.0,0.0
300.0,-300.0,0.0,0.0
300.0,-300.0,0.0,0.0
300.0,-300.0,0.0,0.0
300.0,-300.0,0.0,0.0
300.0,-300.0,0.0,0.0
300.0,-300.0,0.0,0.0
300.0,-300.0,0.0,0.0
300.0,-300.0,0.0,0.0
300.0,-300.0,0.0,0.0
300.0,-300.0,0.0,0.0
300.0,-300.0,0.0,0.0
300.0,-300.0,0.0,0.0
300.0,-300.0,0.0,0.0
300.0,-300.0,0.0,0.0
300.0,-300.0,0.0,0.0
300.0,-300.0,0.0,0.0
300.0,-300.0,0.0,0.0
300.0,-300.0,0.0,0.0
300.0,-300.0,0.0,0.0
300.0,-300.0,0.0,0.0
300.0,-300.0,0.0,0.0
300.0,-300.0,0.0,0.0
300.0,-300.0,0.0,0.0
300.0,-300.0,0.0,0.0
300.0,-300.0,0.0,0.0
300.0,-300.0,0.0,0.0
300.0,-300.0,0.0,0.0
300.0,-300.0,0.0,0.0
300.0,-300.0,0.0,0.0
300.0,-300.0,0.0,0.0
300.0,-300.0,0.0,0.0
300.0,-300.0,0.0,0.0
300.0,-300.0,0.0,0.0
300.0,-300.0,0.0,0.0
300.0,-300.0,0.0,0.0
300.0,-300.0,0.0,0.0
300.0,-300.0,0.0,0.0
300.0,-300.0,0.0,0.0
300.0,-300.0,0.0,0.0
300.0,-300.0,0.0,0.0
300.0,-300.0,0.0,0.0
300.0,-300.0,0.0,0.0
300.0,-300.0,0.0,0.0
300.0,-300.0,0.0,0.0
300.0,-300.0,0.0,0.0
300.0,-300.0,0.0,0.0
300.0,-300.0,0.0,0.0
300.0,-300.0,0.0,0.0
300.0,-300.0,0.0,0.0
300.0,-300.0,0.0,0.0
300.0,-300.0,0.0,0.0
300.0,-300.0,0.0,0.0
300.0,-300.0,0.0,0.0
300.0,-300.0,0.0,0.0
300.0,-300.0,0.0,0.0
300.0,-300.0,0.0,0.0
300.0,-300.0,0.0,0.0
300.0,-300.0,0.0,0.0
300.0,-300.0,0.0,0.0
300.0,-300.0,0.0,0.0
300.0,-300.0,0.0,0.0
300.0,-300.0,0.0,0.0
300.0,-300.0,0.0,0.0
300.0,-300.0,0.0,0.0
300.0,-300.0,0.0,0.0
300.0,-300.0,0.0,0.0
300.0,-300.0,0.0,0.0
300.0,-300.0,0.0,0.0
300.0,-300.0,0.0,0.0
300.0,-300.0,0.0,0.0
300.0,-300.0,0.0,0.0
300.0,-300.0,0.0,0.0
300.0,-300.0,0.0,0.0
300.0,-300.0,0.0,0.0
300.0,-300.0,0.0,0.0
300.0,-300.0,0.0,0.0
300.0,-300.0,0.0,0.0
300.0,-300.0,0.0,0.0
300.0,-300.0,0.0,0.0
300.0,-300.0,0.0,0.0
300.0,-300.0,0.0,0.0
300.0,-300.0,0.0,0.0
300.0,-300.0,0.0,0.0
300.0,-300.0,0.0,0.0
300.0,-300.0,0.0,0.0
300.0,-300.0,0.0,0.0
300.0,-300.0,0.0,0.0
300.0,-300.0,0.0,0.0
300.0,-300.0,0.0,0.0
300.0,-300.0,0.0,0.0
300.0,-300.0,0.0,0.0
300.0,-300.0,0.0,0.0
300.0,-300.0,0.0,0.0
300.0,-300.0,0.0,0.0
300.0,-300.0,0.0,0.0
300.0,-300.0,0.0,0.0
300.0,-300.0,0.0,0.0
300.0,-300.0,0.0,0.0
300.0,-300.0,0.0,0.0
300.0,-300.0,0.0,0.0
300.0,-300.0,0.0,0.0
300.0,-300.0,0.0,0.0
300.0,-300.0,0.0,0.0
300.0,-300.0,0.0,0.0
300.0,-300.0,0.0,0.0
300.0,-300.0,0.0,0.0
300.0,-300.0,0.0,0.0
300.0,-300.0,0.0,0.0
300.0,-300.0,0.0,0.0
300.0,-300.0,0.0,0.0
300.0,-300.0,0.0,0.0
300.0,-300.0,0.0,0.0
300.0,-300.0,0.0,0.0
300.0,-300.0,0.0,0.0
300.0,-300.0,0.0,0.0
300.0,-300.0,0.0,0.0
300.0,-300.0,0.0,0.0
300.0,-300.0,0.0,0.0
300.0,-300.0,0.0,0.0
300.0,-300.0,0.0,0.0
300.0,-300.0,0.0,0.0
300.0,-300.0,0.0,0.0
300.0,-300.0,0.0,0.0
300.0,-300.0,0.0,0.0
300.0,-300.0,0.0,0.0
300.0,-300.0,0.0,0.0
300.0,-300.0,0.0,0.0
300.0,-300.0,0.0,0.0
300.0,-300.0,0.0,0.0
300.0,-300.0,0.0,0.0
300.0,-300.0,0.0,0.0
300.0,-300.0,0.0,0.0
300.0,-300.0,0.0,0.0
300.0,-300.0,0.0,0.0
300.0,-300.0,0.0,0.0
300.0,-300.0,0.0,0.0
300.0,-300.0,0.0,0.0
300.0,-300.0,0.0,0.0
300.0,-300.0,0.0,0.0
300.0,-300.0,0.0,0.0
300.0,-300.0,0.0,0.0
300.0,-300.0,0.0,0.0
300.0,-300.0,0.0,0.0
300.0,-300.0,0.0,0.0
300.0,-300.0,0.0,0.0
300.0,-300.0,0.0,0.0
300.0,-300.0,0.0,0.0
300.0,-300.0,0.0,0.0
300.0,-300.0,0.0,0.0
300.0,-300.0,0.0,0.0
300.0,-300.0,0.0,0.0
300.0,-300.0,0.0,0.0
300.0,-300.0,0.0,0.0
300.0,-300.0,0.0,0.0
300.0,-300.0,0.0,0.0
300.0,-300.0,0.0,0.0
300.0,-300.0,0.0,0.0
300.0,-300.0,0.0,0.0
300.0,-300.0,0.0,0.0
300.0,-300.0,0.0,0.0
300.0,-300.0,0.0,0.0
300.0,-300.0,0.0,0.0
300.0,-300.0,0.0,0.0
300.0,-300.0,0.0,0.0
300.0,-300.0,0.0,0.0
300.0,-300.0,0.0,0.0
300.0,-300.0,0.0,0.0
300.0,-300.0,0.0,0.0
300.0,-300.0,0.0,0.0
300.0,-300.0,0.0,0.0
300.0,-300.0,0.0,0.0
300.0,-300.0,0.0,0.0
300.0,-300.0,0.0,0.0
300.0,-300.0,0.0,0.0
300.0,-300.0,0.0,0.0
300.0,-300.0,0.0,0.0
300.0,-300.0,0.0,0.0
300.0,-300.0,0.0,0.0
300.0,-300.0,0.0,0.0
300.0,-300.0,0.0,0.0
300.0,-300.0,0.0,0.0
300.0,-300.0,0.0,0.0
300.0,-300.0,0.0,0.0
300.0,-300.0,0.0,0.0
300.0,-300.0,0.0,0.0
300.0,-300.0,0.0,0.0
300.0,-300.0,0.0,0.0
300.0,-300.0,0.0,0.0
300.0,-300.0,0.0,0.0
300.0,-300.0,0.0,0.0
300.0,-300.0,0.0,0.0
300.0,-300.0,0.0,0.0
300.0,-300.0,0.0,0.0
300.0,-300.0,0.0,0.0
300.0,-300.0,0.0,0.0
300.0,-300.0,0.0,0.0
300.0,-300.0,0.0,0.0
300.0,-300.0,0.0,0.0
300.0,-300.0,0.0,0.0
300.0,-300.0,0.0,0.0
300.0,-300.0,0.0,0.0
300.0,-300.0,0.0,0.0
300.0,-300.0,0.0,0.0
300.0,-300.0,0.0,0.0
300.0,-300.0,0.0,0.0
300.0,-300.0,0.0,0.0
300.0,-300.0,0.0,0.0
300.0,-300.0,0.0,0.0
300.0,-300.0,0.0,0.0
300.0,-300.0,0.0,0.0
300.0,-300.0,0.0,0.0
300.0,-300.0,0.0,0.0
300.0,-300.0,0.0,0.0
300.0,-300.0,0.0,0.0
300.0,-300.0,0.0,0.0
300.0,-300.0,0.0,0.0
300.0,-300.0,0.0,0.0
300.0,-300.0,0.0,0.0
300.0,-300.0,0.0,0.0
300.0,-300.0,0.0,0.0
300.0,-300.0,0.0,0.0
300.0,-300.0,0.0,0.0
300.0,-300.0,0.0,0.0
300.0,-300.0,0.0,0.0
300.0,-300.0,0.0,0.0
300.0,-300.0,0.0,0.0
300.0,-300.0,0.0,0.0
300.0,-300.0,0.0,0.0
300.0,-300.0,0.0,0.0
300.0,-300.0,0.0,0.0
300.0,-300.0,0.0,0.0
300.0,-300.0,0.0,0.0
300.0,-300.0,0.0,0.0
300.0,-300.0,0.0,0.0
300.0,-300.0,0.0,0.0
300.0,-300.0,0.0,0.0
300.0,-300.0,0.0,0.0
300.0,-300.0,0.0,0.0
300.0,-300.0,0.0,0.0
300.0,-300.0,0.0,0.0
300.0,-300.0,0.0,0.0
300.0,-300.0,0.0,0.0
300.0,-300.0,0.0,0.0
300.0,-300.0,0.0,0.0
300.0,-300.0,0.0,0.0
300.0,-300.0,0.0,0.0
300.0,-300.0,0.0,0.0
300.0,-300.0,0.0,0.0
300.0,-300.0,0.0,0.0
300.0,-300.0,0.0,0.0
300.0,-300.0,0.0,0.0
300.0,-300.0,0.0,0.0
300.0,-300.0,0.0,0.0
300.0,-300.0,0.0,0.0
300.0,-300.0,0.0,0.0
300.0,-300.0,0.0,0.0
300.0,-300.0,0.0,0.0
300.0,-300.0,0.0,0.0
300.0,-300.0,0.0,0.0
300.0,-300.0,0.0,0.0
300.0,-300.0,0.0,0.0
300.0,-300.0,0.0,0.0
300.0,-300.0,0.0,0.0
300.0,-300.0,0.0,0.0
300.0,-300.0,0.0,0.0
300.0,-300.0,0.0,0.0
300.0,-300.0,0.0,0.0
300.0,-300.0,0.0,0.0
300.0,-300.0,0.0,0.0
300.0,-300.0,0.0,0.0
300.0,-300.0,0.0,0.0
300.0,-300.0,0.0,0.0
300.0,-300.0,0.0,0.0
300.0,-300.0,0.0,0.0
300.0,-300.0,0.0,0.0
300.0,-300.0,0.0,0.0
300.0,-300.0,0.0,0.0
300.0,-300.0,0.0,0.0
300.0,-300.0,0.0,0.0
300.0,-300.0,0.0,0.0
300.0,-300.0,0.0,0.0
300.0,-300.0,0.0,0.0
300.0,-300.0,0.0,0.0
300.0,-300.0,0.0,0.0
300.0,-300.0,0.0,0.0
300.0,-300.0,0.0,0.0
300.0,-300.0,0.0,0.0
300.0,-300.0,0.0,0.0
300.0,-300.0,0.0,0.0
300.0,-300.0,0.0,0.0
300.0,-300.0,0.0,0.0
300.0,-300.0,0.0,0.0
300.0,-300.0,0.0,0.0
300.0,-300.0,0.0,0.0
300.0,-300.0,0.0,0.0
300.0,-300.0,0.0,0.0
300.0,-300.0,0.0,0.0
300.0,-300.0,0.0,0.0
300.0,-300.0,0.0,0.0
300.0,-300.0,0.0,0.0
300.0,-300.0,0.0,0.0
300.0,-300.0,0.0,0.0
300.0,-300.0,0.0,0.0
300.0,-300.0,0.0,0.0
300.0,-300.0,0.0,0.0
300.0,-300.0,0.0,0.0
300.0,-300.0,0.0,0.0
300.0,-300.0,0.0,0.0
300.0,-300.0,0.0,0.0
300.0,-300.0,0.0,0.0
300.0,-300.0,0.0,0.0
300.0,-300.0,0.0,0.0
300.0,-300.0,0.0,0.0
300.0,-300.0,0.0,0.0
300.0,-300.0,0.0,0.0
300.0,-300.0,0.0,0.0
300.0,-300.0,0.0,0.0
300.0,-300.0,0.0,0.0
300.0,-300.0,0.0,0.0
300.0,-300.0,0.0,0.0
300.0,-300.0,0.0,0.0
300.0,-300.0,0.0,0.0
300.0,-300.0,0.0,0.0
300.0,-300.0,0.0,0.0
300.0,-300.0,0.0,0.0
300.0,-300.0,0.0,0.0
300.0,-300.0,0.0,0.0
300.0,-300.0,0.0,0.0
300.0,-300.0,0.0,0.0
300.0,-300.0,0.0,0.0
300.0,-300.0,0.0,0.0
300.0,-300.0,0.0,0.0
300.0,-300.0,0.0,0.0
300.0,-300.0,0.0,0.0
300.0,-300.0,0.0,0.0
300.0,-300.0,0.0,0.0
300.0,-300.0,0.0,0.0
300.0,-300.0,0.0,0.0
300.0,-300.0,0.0,0.0
300.0,-300.0,0.0,0.0
300.0,-300.0,0.0,0.0
300.0,-300.0,0.0,0.0
300.0,-300.0,0.0,0.0
300.0,-300.0,0.0,0.0
300.0,-300.0,0.0,0.0
300.0,-300.0,0.0,0.0
300.0,-300.0,0.0,0.0
300.0,-300.0,0.0,0.0
300.0,-300.0,0.0,0.0
300.0,-300.0,0.0,0.0
300.0,-300.0,0.0,0.0
300.0,-300.0,0.0,0.0
300.0,-300.0,0.0,0.0
300.0,-300.0,0.0,0.0
300.0,-300.0,0.0,0.0
300.0,-300.0,0.0,0.0
300.0,-300.0,0.0,0.0
300.0,-300.0,0.0,0.0
300.0,-300.0,0.0,0.0
300.0,-300.0,0.0,0.0
300.0,-300.0,0.0,0.0
300.0,-300.0,0.0,0.0
300.0,-300.0,0.0,0.0
300.0,-300.0,0.0,0.0
300.0,-300.0,0.0,0.0
300.0,-300.0,0.0,0.0
300.0,-300.0,0.0,0.0
300.0,-300.0,0.0,0.0
300.0,-300.0,0.0,0.0
300.0,-300.0,0.0,0.0
300.0,-300.0,0.0,0.0
300.0,-300.0,0.0,0.0
300.0,-300.0,0.0,0.0
300.0,-300.0,0.0,0.0
300.0,-300.0,0.0,0.0
300.0,-300.0,0.0,0.0
300.0,-300.0,0.0,0.0
300.0,-300.0,0.0,0.0
300.0,-300.0,0.0,0.0
300.0,-300.0,0.0,0.0
300.0,-300.0,0.0,0.0
300.0,-300.0,0.0,0.0
300.0,-300.0,0.0,0.0
300.0,-300.0,0.0,0.0
300.0,-300.0,0.0,0.0
300.0,-300.0,0.0,0.0
300.0,-300.0,0.0,0.0
300.0,-300.0,0.0,0.0
300.0,-300.0,0.0,0.0
300.0,-300.0,0.0,0.0
300.0,-300.0,0.0,0.0
300.0,-300.0,0.0,0.0
300.0,-300.0,0.0,0.0
300.0,-300.0,0.0,0.0
300.0,-300.0,0.0,0.0
300.0,-300.0,0.0,0.0
300.0,-300.0,0.0,0.0
300.0,-300.0,0.0,0.0
300.0,-300.0,0.0,0.0
300.0,-300.0,0.0,0.0
300.0,-300.0,0.0,0.0
300.0,-300.0,0.0,0.0
300.0,-300.0,0.0,0.0
300.0,-300.0,0.0,0.0
300.0,-300.0,0.0,0.0
300.0,-300.0,0.0,0.0
300.0,-300.0,0.0,0.0
300.0,-300.0,0.0,0.0
300.0,-300.0,0.0,0.0
300.0,-300.0,0.0,0.0
300.0,-300.0,0.0,0.0
300.0,-300.0,0.0,0.0
300.0,-300.0,0.0,0.0
300.0,-300.0,0.0,0.0
300.0,-300.0,0.0,0.0
300.0,-300.0,0.0,0.0
300.0,-300.0,0.0,0.0
300.0,-300.0,0.0,0.0
300.0,-300.0,0.0,0.0
300.0,-300.0,0.0,0.0
300.0,-300.0,0.0,0.0
300.0,-300.0,0.0,0.0
300.0,-300.0,0.0,0.0
300.0,-300.0,0.0,0.0
300.0,-300.0,0.0,0.0
300.0,-300.0,0.0,0.0
300.0,-300.0,0.0,0.0
300.0,-300.0,0.0,0.0
300.0,-300.0,0.0,0.0
300.0,-300.0,0.0,0.0
300.0,-300.0,0.0,0.0
300.0,-300.0,0.0,0.0
300.0,-300.0,0.0,0.0
300.0,-300.0,0.0,0.0
300.0,-300.0,0.0,0.0
300.0,-300.0,0.0,0.0
300.0,-300.0,0.0,0.0
300.0,-300.0,0.0,0.0
300.0,-300.0,0.0,0.0
300.0,-300.0,0.0,0.0
300.0,-300.0,0.0,0.0
300.0,-300.0,0.0,0.0
300.0,-300.0,0.0,0.0
300.0,-300.0,0.0,0.0
300.0,-300.0,0.0,0.0
300.0,-300.0,0.0,0.0
300.0,-300.0,0.0,0.0
300.0,-300.0,0.0,0.0
300.0,-300.0,0.0,0.0
300.0,-300.0,0.0,0.0
300.0,-300.0,0.0,0.0
300.0,-300.0,0.0,0.0
300.0,-300.0,0.0,0.0
300.0,-300.0,0.0,0.0
300.0,-300.0,0.0,0.0
300.0,-300.0,0.0,0.0
300.0,-300.0,0.0,0.0
300.0,-300.0,0.0,0.0
300.0,-300.0,0.0,0.0
300.0,-300.0,0.0,0.0
300.0,-300.0,0.0,0.0
300.0,-300.0,0.0,0.0
300.0,-300.0,0.0,0.0
300.0,-300.0,0.0,0.0
300.0,-300.0,0.0,0.0
300.0,-300.0,0.0,0.0
300.0,-300.0,0.0,0.0
300.0,-300.0,0.0,0.0
300.0,-300.0,0.0,0.0
300.0,-300.0,0.0,0.0
300.0,-300.0,0.0,0.0
300.0,-300.0,0.0,0.0
300.0,-300.0,0.0,0.0
300.0,-300.0,0.0,0.0
300.0,-300.0,0.0,0.0
300.0,-300.0,0.0,0.0
300.0,-300.0,0.0,0.0
300.0,-300.0,0.0,0.0
300.0,-300.0,0.0,0.0
300.0,-300.0,0.0,0.0
300.0,-300.0,0.0,0.0
300.0,-300.0,0.0,0.0
300.0,-300.0,0.0,0.0
300.0,-300.0,0.0,0.0
300.0,-300.0,0.0,0.0
300.0,-300.0,0.0,0.0
300.0,-300.0,0.0,0.0
300.0,-300.0,0.0,0.0
300.0,-300.0,0.0,0.0
300.0,-300.0,0.0,0.0
300.0,-300.0,0.0,0.0
300.0,-300.0,0.0,0.0
300.0,-300.0,0.0,0.0
300.0,-300.0,0.0,0.0
300.0,-300.0,0.0,0.0
300.0,-300.0,0.0,0.0
300.0,-300.0,0.0,0.0
300.0,-300.0,0.0,0.0
300.0,-300.0,0.0,0.0
300.0,-300.0,0.0,0.0
300.0,-300.0,0.0,0.0
300.0,-300.0,0.0,0.0
300.0,-300.0,0.0,0.0
300.0,-300.0,0.0,0.0
300.0,-300.0,0.0,0.0
300.0,-300.0,0.0,0.0
300.0,-300.0,0.0,0.0
300.0,-300.0,0.0,0.0
300.0,-300.0,0.0,0.0
300.0,-300.0,0.0,0.0
300.0,-300.0,0.0,0.0
300.0,-300.0,0.0,0.0
300.0,-300.0,0.0,0.0
300.0,-300.0,0.0,0.0
300.0,-300.0,0.0,0.0
300.0,-300.0,0.0,0.0
300.0,-300.0,0.0,0.0
300.0,-300.0,0.0,0.0
300.0,-300.0,0.0,0.0
300.0,-300.0,0.0,0.0
300.0,-300.0,0.0,0.0
300.0,-300.0,0.0,0.0
300.0,-300.0,0.0,0.0
300.0,-300.0,0.0,0.0
300.0,-300.0,0.0,0.0
300.0,-300.0,0.0,0.0
300.0,-300.0,0.0,0.0
300.0,-300.0,0.0,0.0
300.0,-300.0,0.0,0.0
300.0,-300.0,0.0,0.0
300.0,-300.0,0.0,0.0
300.0,-300.0,0.0,0.0
300.0,-300.0,0.0,0.0
300.0,-300.0,0.0,0.0
300.0,-300.0,0.0,0.0
300.0,-300.0,0.0,0.0
300.0,-300.0,0.0,0.0
300.0,-300.0,0.0,0.0
300.0,-300.0,0.0,0.0
300.0,-300.0,0.0,0.0
300.0,-300.0,0.0,0.0
300.0,-300.0,0.0,0.0
300.0,-300.0,0.0,0.0
300.0,-300.0,0.0,0.0
300.0,-300.0,0.0,0.0
300.0,-300.0,0.0,0.0
300.0,-300.0,0.0,0.0
300.0,-300.0,0.0,0.0
300.0,-300.0,0.0,0.0
300.0,-300.0,0.0,0.0
300.0,-300.0,0.0,0.0
300.0,-300.0,0.0,0.0
300.0,-300.0,0.0,0.0
300.0,-300.0,0.0,0.0
300.0,-300.0,0.0,0.0
300.0,-300.0,0.0,0.0
300.0,-300.0,0.0,0.0
300.0,-300.0,0.0,0.0
300.0,-300.0,0.0,0.0
300.0,-300.0,0.0,0.0
300.0,-300.0,0.0,0.0
300.0,-300.0,0.0,0.0
300.0,-300.0,0.0,0.0
300.0,-300.0,0.0,0.0
300.0,-300.0,0.0,0.0
300.0,-300.0,0.0,0.0
300.0,-300.0,0.0,0.0
300.0,-300.0,0.0,0.0
300.0,-300.0,0.0,0.0
300.0,-300.0,0.0,0.0
300.0,-300.0,0.0,0.0
300.0,-300.0,0.0,0.0
300.0,-300.0,0.0,0.0
300.0,-300.0,0.0,0.0
300.0,-300.0,0.0,0.0
300.0,-300.0,0.0,0.0
300.0,-300.0,0.0,0.0
300.0,-300.0,0.0,0.0
300.0,-300.0,0.0,0.0
300.0,-300.0,0.0,0.0
300.0,-300.0,0.0,0.0
300.0,-300.0,0.0,0.0
300.0,-300.0,0.0,0.0
300.0,-300.0,0.0,0.0
300.0,-300.0,0.0,0.0
300.0,-300.0,0.0,0.0
300.0,-300.0,0.0,0.0
300.0,-300.0,0.0,0.0
300.0,-300.0,0.0,0.0
300.0,-300.0,0.0,0.0
300.0,-300.0,0.0,0.0
300.0,-300.0,0.0,0.0
300.0,-300.0,0.0,0.0
300.0,-300.0,0.0,0.0
300.0,-300.0,0.0,0.0
300.0,-300.0,0.0,0.0
300.0,-300.0,0.0,0.0
300.0,-300.0,0.0,0.0
300.0,-300.0,0.0,0.0
300.0,-300.0,0.0,0.0
300.0,-300.0,0.0,0.0
300.0,-300.0,0.0,0.0
300.0,-300.0,0.0,0.0
300.0,-300.0,0.0,0.0
300.0,-300.0,0.0,0.0
300.0,-300.0,0.0,0.0
300.0,-300.0,0.0,0.0
300.0,-300.0,0.0,0.0
300.0,-300.0,0.0,0.0
300.0,-300.0,0.0,0.0
300.0,-300.0,0.0,0.0
300.0,-300.0,0.0,0.0
300.0,-300.0,0.0,0.0
300.0,-300.0,0.0,0.0
300.0,-300.0,0.0,0.0
300.0,-300.0,0.0,0.0
300.0,-300.0,0.0,0.0
300.0,-300.0,0.0,0.0
300.0,-300.0,0.0,0.0
300.0,-300.0,0.0,0.0
300.0,-300.0,0.0,0.0
300.0,-300.0,0.0,0.0
300.0,-300.0,0.0,0.0
300.0,-300.0,0.0,0.0
300.0,-300.0,0.0,0.0
300.0,-300.0,0.0,0.0
300.0,-300.0,0.0,0.0
300.0,-300.0,0.0,0.0
300.0,-300.0,0.0,0.0
300.0,-300.0,0.0,0.0
300.0,-300.0,0.0,0.0
300.0,-300.0,0.0,0.0
300.0,-300.0,0.0,0.0
300.0,-300.0,0.0,0.0
300.0,-300.0,0.0,0.0
300.0,-300.0,0.0,0.0
300.0,-300.0,0.0,0.0
300.0,-300.0,0.0,0.0
300.0,-300.0,0.0,0.0
300.0,-300.0,0.0,0.0
300.0,-300.0,0.0,0.0
300.0,-300.0,0.0,0.0
300.0,-300.0,0.0,0.0
300.0,-300.0,0.0,0.0
300.0,-300.0,0.0,0.0
300.0,-300.0,0.0,0.0
300.0,-300.0,0.0,0.0
300.0,-300.0,0.0,0.0
300.0,-300.0,0.0,0.0
300.0,-300.0,0.0,0.0
300.0,-300.0,0.0,0.0
300.0,-300.0,0.0,0.0
300.0,-300.0,0.0,0.0
300.0,-300.0,0.0,0.0
300.0,-300.0,0.0,0.0
300.0,-300.0,0.0,0.0
300.0,-300.0,0.0,0.0
300.0,-300.0,0.0,0.0
300.0,-300.0,0.0,0.0
300.0,-300.0,0.0,0.0
300.0,-300.0,0.0,0.0
300.0,-300.0,0.0,0.0
300.0,-300.0,0.0,0.0
300.0,-300.0,0.0,0.0
300.0,-300.0,0.0,0.0
300.0,-300.0,0.0,0.0
300.0,-300.0,0.0,0.0
300.0,-300.0,0.0,0.0
300.0,-300.0,0.0,0.0
300.0,-300.0,0.0,0.0
300.0,-300.0,0.0,0.0
300.0,-300.0,0.0,0.0
300.0,-300.0,0.0,0.0
300.0,-300.0,0.0,0.0
300.0,-300.0,0.0,0.0
300.0,-300.0,0.0,0.0
300.0,-300.0,0.0,0.0
300.0,-300.0,0.0,0.0
300.0,-300.0,0.0,0.0
300.0,-300.0,0.0,0.0
300.0,-300.0,0.0,0.0
300.0,-300.0,0.0,0.0
300.0,-300.0,0.0,0.0
300.0,-300.0,0.0,0.0
300.0,-300.0,0.0,0.0
300.0,-300.0,0.0,0.0
300.0,-300.0,0.0,0.0
300.0,-300.0,0.0,0.0
300.0,-300.0,0.0,0.0
300.0,-300.0,0.0,0.0
300.0,-300.0,0.0,0.0
300.0,-300.0,0.0,0.0
300.0,-300.0,0.0,0.0
300.0,-300.0,0.0,0.0
300.0,-300.0,0.0,0.0
300.0,-300.0,0.0,0.0
300.0,-300.0,0.0,0.0
300.0,-300.0,0.0,0.0
300.0,-300.0,0.0,0.0
300.0,-300.0,0.0,0.0
300.0,-300.0,0.0,0.0
300.0,-300.0,0.0,0.0
300.0,-300.0,0.0,0.0
300.0,-300.0,0.0,0.0
300.0,-300.0,0.0,0.0
300.0,-300.0,0.0,0.0
300.0,-300.0,0.0,0.0
300.0,-300.0,0.0,0.0
300.0,-300.0,0.0,0.0
300.0,-300.0,0.0,0.0
300.0,-300.0,0.0,0.0
300.0,-300.0,0.0,0.0
300.0,-300.0,0.0,0.0
300.0,-300.0,0.0,0.0
300.0,-300.0,0.0,0.0
300.0,-300.0,0.0,0.0
300.0,-300.0,0.0,0.0
300.0,-300.0,0.0,0.0
300.0,-300.0,0.0,0.0
300.0,-300.0,0.0,0.0
300.0,-300.0,0.0,0.0
300.0,-300.0,0.0,0.0
300.0,-300.0,0.0,0.0
300.0,-300.0,0.0,0.0
300.0,-300.0,0.0,0.0
300.0,-300.0,0.0,0.0
300.0,-300.0,0.0,0.0
300.0,-300.0,0.0,0.0
300.0,-300.0,0.0,0.0
300.0,-300.0,0.0,0.0
300.0,-300.0,0.0,0.0
300.0,-300.0,0.0,0.0
300.0,-300.0,0.0,0.0
300.0,-300.0,0.0,0.0
300.0,-300.0,0.0,0.0
300.0,-300.0,0.0,0.0
300.0,-300.0,0.0,0.0
300.0,-300.0,0.0,0.0
300.0,-300.0,0.0,0.0
300.0,-300.0,0.0,0.0
300.0,-300.0,0.0,0.0
300.0,-300.0,0.0,0.0
300.0,-300.0,0.0,0.0
300.0,-300.0,0.0,0.0
300.0,-300.0,0.0,0.0
300.0,-300.0,0.0,0.0
300.0,-300.0,0.0,0.0
300.0,-300.0,0.0,0.0
300.0,-300.0,0.0,0.0
300.0,-300.0,0.0,0.0
300.0,-300.0,0.0,0.0
300.0,-300.0,0.0,0.0
300.0,-300.0,0.0,0.0
300.0,-300.0,0.0,0.0
300.0,-300.0,0.0,0.0
300.0,-300.0,0.0,0.0
300.0,-300.0,0.0,0.0
300.0,-300.0,0.0,0.0
300.0,-300.0,0.0,0.0
300.0,-300.0,0.0,0.0
300.0,-300.0,0.0,0.0
300.0,-300.0,0.0,0.0
300.0,-300.0,0.0,0.0
300.0,-300.0,0.0,0.0
300.0,-300.0,0.0,0.0
300.0,-300.0,0.0,0.0
300.0,-300.0,0.0,0.0
300.0,-300.0,0.0,0.0
300.0,-300.0,0.0,0.0
300.0,-300.0,0.0,0.0
300.0,-300.0,0.0,0.0
300.0,-300.0,0.0,0.0
300.0,-300.0,0.0,0.0
300.0,-300.0,0.0,0.0
300.0,-300.0,0.0,0.0
300.0,-300.0,0.0,0.0
300.0,-300.0,0.0,0.0
300.0,-300.0,0.0,0.0
300.0,-300.0,0.0,0.0
300.0,-300.0,0.0,0.0
300.0,-300.0,0.0,0.0
300.0,-300.0,0.0,0.0
300.0,-300.0,3381.54,0.0
300.0,-300.0,6405.57,0.0
300.0,-300.0,10412.8,0.0
300.0,-300.0,15304.76,0.0
300.0,-300.0,20721.01,0.0
300.0,-300.0,26361.3,0.0
300.0,-300.0,31719.42,0.0
300.0,-300.0,36274.28,0.0
300.0,-300.0,39518.69,0.0
300.0,-300.0,41026.39,0.0
300.0,-300.0,40524.75,0.0
300.0,-300.0,37988.0,0.0
300.0,-300.0,33557.39,0.0
300.0,-300.0,27643.14,0.0
300.0,-300.0,20769.97,0.0
300.0,-300.0,13790.95,0.0
300.0,-300.0,7424.84,0.0
300.0,-300.0,2391.44,0.0
300.0,-300.0,-732.83,0.0
300.0,-300.0,-1587.31,0.0
300.0,-300.0,-68.0,0.0
300.0,-300.0,3665.57,0.0
300.0,-300.0,9215.3,0.0
300.0,-300.0,16005.51,0.0
300.0,-300.0,23342.76,0.0
300.0,-300.0,30551.33,0.0
300.0,-300.0,36999.71,0.0
300.0,-300.0,42188.68,0.0
300.0,-300.0,45783.99,0.0
300.0,-300.0,47621.17,0.0
300.0,-300.0,47685.2,0.0
300.0,-300.0,46069.13,0.0
300.0,-300.0,42920.73,0.0
300.0,-300.0,38391.53,0.0
300.0,-300.0,32608.88,0.0
300.0,-300.0,25643.12,0.0
300.0,-300.0,17518.32,0.0
300.0,-300.0,8234.56,0.0
300.0,-300.0,-2195.61,0.0
300.0,-300.0,-13704.93,0.0
300.0,-300.0,-26134.64,0.0
300.0,-300.0,-39216.47,0.0
300.0,-300.0,-52568.07,0.0
300.0,-300.0,-65722.75,0.0
300.0,-300.0,-78156.77,0.0
300.0,-300.0,-89357.7,0.0
300.0,-300.0,-98874.8,0.0
300.0,-300.0,-106368.82,0.0
300.0,-300.0,-111643.62,0.0
300.0,-300.0,-114656.24,0.0
300.0,-300.0,-115500.41,0.0
300.0,-300.0,-114372.11,0.0
300.0,-300.0,-111520.48,0.0
300.0,-300.0,-107199.95,0.0
300.0,-300.0,-101615.34,0.0
300.0,-300.0,-94907.3,0.0
300.0,-300.0,-87138.97,0.0
300.0,-300.0,-78318.4,0.0
300.0,-300.0,-68434.97,0.0
300.0,-300.0,-57510.55,0.0
300.0,-300.0,-45648.07,0.0
300.0,-300.0,-33073.86,0.0
300.0,-300.0,-20154.16,0.0
300.0,-300.0,-7393.71,0.0
300.0,-300.0,4610.61,0.0
300.0,-300.0,15218.16,0.0
300.0,-300.0,23826.63,0.0
300.0,-300.0,29949.08,0.0
300.0,-300.0,33286.17,0.0
300.0,-300.0,33776.32,0.0
300.0,-300.0,31616.63,0.0
300.0,-300.0,27247.02,0.0
300.0,-300.0,21310.72,0.0
300.0,-300.0,14574.91,0.0
300.0,-300.0,7852.21,0.0
300.0,-300.0,1902.77,0.0
300.0,-300.0,-2646.23,0.0
300.0,-300.0,-5361.83,0.0
300.0,-300.0,-6040.35,0.0
300.0,-300.0,-4713.91,0.0
300.0,-300.0,-1625.06,0.0
300.0,-300.0,2819.26,0.0
300.0,-300.0,8111.02,0.0
300.0,-300.0,13708.3,0.0
300.0,-300.0,19098.41,0.0
300.0,-300.0,23849.21,0.0
300.0,-300.0,27646.52,0.0
300.0,-300.0,30260.72,0.0
300.0,-300.0,31795.61,0.0
300.0,-300.0,32366.45,0.0
300.0,-300.0,31167.82,0.0
300.0,-300.0,29427.56,0.0
300.0,-300.0,27305.28,0.0
300.0,-300.0,24854.33,0.0
300.0,-300.0,22133.59,0.0
300.0,-300.0,19366.31,0.0
300.0,-300.0,16591.0,0.0
300.0,-300.0,13925.9,0.0
300.0,-300.0,11463.93,0.0
300.0,-300.0,9277.39,0.0
300.0,-300.0,7415.07,0.0
300.0,-300.0,5903.9,0.0
300.0,-300.0,4688.5,0.0
300.0,-300.0,3758.83,0.0
300.0,-300.0,3034.75,0.0
300.0,-300.0,2540.37,0.0
300.0,-300.0,2104.16,0.0
300.0,-300.0,1728.58,0.0
300.0,-300.0,1408.6,0.0
300.0,-300.0,1138.8,0.0
300.0,-300.0,916.1,0.0
300.0,-300.0,739.18,0.0
300.0,-300.0,605.6,0.0
300.0,-300.0,513.44,0.0
300.0,-300.0,455.81,0.0
300.0,-300.0,445.4,0.0
300.0,-300.0,461.39,0.0
300.0,-300.0,499.87,0.0
300.0,-300.0,556.3,0.0
300.0,-300.0,624.69,0.0
300.0,-300.0,698.41,0.0
300.0,-300.0,771.34,0.0
300.0,-300.0,839.63,0.0
300.0,-300.0,896.43,0.0
300.0,-300.0,944.78,0.0
300.0,-300.0,979.1,0.0
300.0,-300.0,999.9,0.0
300.0,-300.0,1008.68,0.0
300.0,-300.0,1006.29,0.0
300.0,-300.0,994.05,0.0
300.0,-300.0,972.13,0.0
300.0,-300.0,940.35,0.0
300.0,-300.0,897.15,0.0
300.0,-300.0,840.91,0.0
300.0,-300.0,774.89,0.0
300.0,-300.0,694.69,0.0
300.0,-300.0,600.86,0.0
300.0,-300.0,495.31,0.0
300.0,-300.0,380.49,0.0
300.0,-300.0,259.12,0.0
300.0,-300.0,133.82,0.0
300.0,-300.0,7.67,0.0
300.0,-300.0,-116.96,0.0
300.0,-300.0,-239.33,0.0
300.0,-300.0,-354.54,0.0
300.0,-300.0,-465.75,0.0
300.0,-300.0,-572.06,0.0
300.0,-300.0,-673.02,0.0
300.0,-300.0,-768.7,0.0
300.0,-300.0,-858.68,0.0
300.0,-300.0,-942.69,0.0
300.0,-300.0,-1020.87,0.0
300.0,-300.0,-1091.56,0.0
300.0,-300.0,-1155.56,0.0
300.0,-300.0,-1209.66,0.0
300.0,-300.0,-1256.64,0.0
300.0,-300.0,-1297.25,0.0
300.0,-300.0,-1332.48,0.0
300.0,-300.0,-1364.54,0.0
300.0,-300.0,-1395.87,0.0
300.0,-300.0,-1429.4,0.0
300.0,-300.0,-1467.67,0.0
300.0,-300.0,-1511.44,0.0
300.0,-300.0,-1562.55,0.0
300.0,-300.0,-1618.26,0.0
300.0,-300.0,-1677.38,0.0
300.0,-300.0,-1737.49,0.0
300.0,-300.0,-1794.58,0.0
300.0,-300.0,-1844.11,0.0
300.0,-300.0,-1882.9,0.0
300.0,-300.0,-1907.98,0.0
300.0,-300.0,-1917.29,0.0
300.0,-300.0,-1913.05,0.0
300.0,-300.0,-1894.57,0.0
300.0,-300.0,-1866.51,0.0
300.0,-300.0,-1832.19,0.0
300.0,-300.0,-1795.6,0.0
300.0,-300.0,-1760.23,0.0
300.0,-300.0,-1728.82,0.0
300.0,-300.0,-1702.7,0.0
300.0,-300.0,-1681.4,0.0
300.0,-300.0,-1664.66,0.0
300.0,-300.0,-1650.13,0.0
300.0,-300.0,-1636.49,0.0
300.0,-300.0,-1620.17,0.0
300.0,-300.0,-1599.26,0.0
300.0,-300.0,-1571.92,0.0
300.0,-300.0,-1538.34,0.0
300.0,-300.0,-1498.9,0.0
300.0,-300.0,-1455.44,0.0
300.0,-300.0,-1410.42,0.0
300.0,-300.0,-1365.89,0.0
300.0,-300.0,-1324.72,0.0
300.0,-300.0,-1287.81,0.0
300.0,-300.0,-1257.01,0.0
300.0,-300.0,-1232.44,0.0
300.0,-300.0,-1213.42,0.0
300.0,-300.0,-1199.24,0.0
300.0,-300.0,-1189.02,0.0
300.0,-300.0,-1181.94,0.0
300.0,-300.0,-1179.03,0.0
300.0,-300.0,-1179.03,0.0
300.0,-300.0,-1183.86,0.0
300.0,-300.0,-1195.2,0.0
300.0,-300.0,-1214.72,0.0
300.0,-300.0,-1243.98,0.0
300.0,-300.0,-1284.93,0.0
300.0,-300.0,-1337.8,0.0
300.0,-300.0,-1402.5,0.0
300.0,-300.0,-1477.76,0.0
300.0,-300.0,-1562.53,0.0
300.0,-300.0,-1653.0,0.0
300.0,-300.0,-1746.58,0.0
300.0,-300.0,-1841.49,0.0
300.0,-300.0,-1933.51,0.0
300.0,-300.0,-2021.22,0.0
300.0,-300.0,-2103.27,0.0
300.0,-300.0,-2179.19,0.0
300.0,-300.0,-2248.61,0.0
300.0,-300.0,-2311.8,0.0
300.0,-300.0,-2369.48,0.0
300.0,-300.0,-2421.7,0.0
300.0,-300.0,-2468.33,0.0
300.0,-300.0,-2508.68,0.0
300.0,-300.0,-2542.34,0.0
300.0,-300.0,-2568.41,0.0
300.0,-300.0,-2585.89,0.0
300.0,-300.0,-2594.42,0.0
300.0,-300.0,-2593.46,0.0
300.0,-300.0,-2584.6,0.0
300.0,-300.0,-2569.23,0.0
300.0,-300.0,-2548.92,0.0
300.0,-300.0,-2526.06,0.0
300.0,-300.0,-2503.8,0.0
300.0,-300.0,-2484.13,0.0
300.0,-300.0,-2468.61,0.0
300.0,-300.0,-2458.17,0.0
300.0,-300.0,-2452.39,0.0
300.0,-300.0,-2450.38,0.0
300.0,-300.0,-2450.84,0.0
300.0,-300.0,-2450.41,0.0
300.0,-300.0,-2446.89,0.0
300.0,-300.0,-2436.45,0.0
300.0,-300.0,-2417.38,0.0
300.0,-300.0,-2387.9,0.0
300.0,-300.0,-2346.89,0.0
300.0,-300.0,-2294.13,0.0
300.0,-300.0,-2230.74,0.0
300.0,-300.0,-2157.9,0.0
300.0,-300.0,-2077.52,0.0
300.0,-300.0,-1992.13,0.0
300.0,-300.0,-1904.94,0.0
300.0,-300.0,-1818.07,0.0
300.0,-300.0,-1734.82,0.0
300.0,-300.0,-1656.41,0.0
300.0,-300.0,-1585.18,0.0
300.0,-300.0,-1522.31,0.0
300.0,-300.0,-1468.16,0.0
300.0,-300.0,-1422.71,0.0
300.0,-300.0,-1384.91,0.0
300.0,-300.0,-1353.65,0.0
300.0,-300.0,-1327.15,0.0
300.0,-300.0,-1304.67,0.0
300.0,-300.0,-1282.05,0.0
300.0,-300.0,-1258.09,0.0
300.0,-300.0,-1231.08,0.0
300.0,-300.0,-1199.95,0.0
300.0,-300.0,-1164.0,0.0
300.0,-300.0,-1123.3,0.0
300.0,-300.0,-1077.84,0.0
300.0,-300.0,-1029.72,0.0
300.0,-300.0,-980.58,0.0
300.0,-300.0,-931.43,0.0
300.0,-300.0,-883.86,0.0
300.0,-300.0,-839.69,0.0
300.0,-300.0,-799.75,0.0
300.0,-300.0,-765.02,0.0
300.0,-300.0,-735.91,0.0
300.0,-300.0,-713.07,0.0
300.0,-300.0,-697.26,0.0
300.0,-300.0,-688.16,0.0
300.0,-300.0,-686.99,0.0
300.0,-300.0,-694.61,0.0
300.0,-300.0,-712.05,0.0
300.0,-300.0,-740.11,0.0
300.0,-300.0,-779.78,0.0
300.0,-300.0,-831.09,0.0
300.0,-300.0,-893.78,0.0
300.0,-300.0,-967.42,0.0
300.0,-300.0,-1049.61,0.0
300.0,-300.0,-1138.95,0.0
300.0,-300.0,-1231.64,0.0
300.0,-300.0,-1326.19,0.0
300.0,-300.0,-1419.93,0.0
300.0,-300.0,-1510.89,0.0
300.0,-300.0,-1597.12,0.0
300.0,-300.0,-1678.11,0.0
300.0,-300.0,-1753.56,0.0
300.0,-300.0,-1824.45,0.0
300.0,-300.0,-1890.05,0.0
300.0,-300.0,-1951.48,0.0
300.0,-300.0,-2008.19,0.0
300.0,-300.0,-2060.63,0.0
300.0,-300.0,-2108.11,0.0
300.0,-300.0,-2149.58,0.0
300.0,-300.0,-2183.98,0.0
300.0,-300.0,-2210.49,0.0
300.0,-300.0,-2228.77,0.0
300.0,-300.0,-2239.19,0.0
300.0,-300.0,-2242.98,0.0
300.0,-300.0,-2241.3,0.0
300.0,-300.0,-2236.77,0.0
300.0,-300.0,-2231.44,0.0
300.0,-300.0,-2228.44,0.0
300.0,-300.0,-2229.08,0.0
300.0,-300.0,-2235.08,0.0
300.0,-300.0,-2246.2,0.0
300.0,-300.0,-2262.34,0.0
300.0,-300.0,-2281.3,0.0
300.0,-300.0,-2302.09,0.0
300.0,-300.0,-2320.86,0.0
300.0,-300.0,-2335.14,0.0
300.0,-300.0,-2343.06,0.0
300.0,-300.0,-2342.68,0.0
300.0,-300.0,-2332.45,0.0
300.0,-300.0,-2311.98,0.0
300.0,-300.0,-2281.44,0.0
300.0,-300.0,-2239.19,0.0
300.0,-300.0,-2188.41,0.0
300.0,-300.0,-2129.96,0.0
300.0,-300.0,-2064.08,0.0
300.0,-300.0,-1993.68,0.0
300.0,-300.0,-1920.12,0.0
300.0,-300.0,-1845.66,0.0
300.0,-300.0,-1772.34,0.0
300.0,-300.0,-1701.85,0.0
300.0,-300.0,-1636.54,0.0
300.0,-300.0,-1578.24,0.0
300.0,-300.0,-1528.31,0.0
300.0,-300.0,-1487.78,0.0
300.0,-300.0,-1457.1,0.0
300.0,-300.0,-1435.53,0.0
300.0,-300.0,-1420.59,0.0
300.0,-300.0,-1410.42,0.0
300.0,-300.0,-1401.82,0.0
300.0,-300.0,-1391.98,0.0
300.0,-300.0,-1377.61,0.0
300.0,-300.0,-1357.04,0.0
300.0,-300.0,-1327.65,0.0
300.0,-300.0,-1289.44,0.0
300.0,-300.0,-1242.84,0.0
300.0,-300.0,-1189.35,0.0
300.0,-300.0,-1130.85,0.0
300.0,-300.0,-1069.52,0.0
300.0,-300.0,-1008.39,0.0
300.0,-300.0,-949.62,0.0
300.0,-300.0,-894.75,0.0
300.0,-300.0,-844.43,0.0
300.0,-300.0,-800.27,0.0
300.0,-300.0,-761.81,0.0
300.0,-300.0,-729.68,0.0
300.0,-300.0,-703.34,0.0
300.0,-300.0,-683.56,0.0
300.0,-300.0,-671.47,0.0
300.0,-300.0,-668.31,0.0
300.0,-300.0,-675.46,0.0
300.0,-300.0,-694.35,0.0
300.0,-300.0,-725.71,0.0
300.0,-300.0,-771.41,0.0
300.0,-300.0,-830.11,0.0
300.0,-300.0,-900.73,0.0
300.0,-300.0,-982.01,0.0
300.0,-300.0,-1070.74,0.0
300.0,-300.0,-1164.4,0.0
300.0,-300.0,-1259.7,0.0
300.0,-300.0,-1354.1,0.0
300.0,-300.0,-1445.29,0.0
300.0,-300.0,-1532.23,0.0
300.0,-300.0,-1614.23,0.0
300.0,-300.0,-1690.77,0.0
300.0,-300.0,-1763.0,0.0
300.0,-300.0,-1831.15,0.0
300.0,-300.0,-1895.46,0.0
300.0,-300.0,-1956.27,0.0
300.0,-300.0,-2012.7,0.0
300.0,-300.0,-2063.32,0.0
300.0,-300.0,-2107.94,0.0
300.0,-300.0,-2144.45,0.0
300.0,-300.0,-2171.9,0.0
300.0,-300.0,-2189.63,0.0
300.0,-300.0,-2198.41,0.0
300.0,-300.0,-2199.31,0.0
300.0,-300.0,-2194.4,0.0
300.0,-300.0,-2186.45,0.0
300.0,-300.0,-2177.76,0.0
300.0,-300.0,-2172.05,0.0
300.0,-300.0,-2171.96,0.0
300.0,-300.0,-2177.99,0.0
300.0,-300.0,-2191.22,0.0
300.0,-300.0,-2210.45,0.0
300.0,-300.0,-2233.56,0.0
300.0,-300.0,-2258.73,0.0
300.0,-300.0,-2281.96,0.0
300.0,-300.0,-2300.51,0.0
300.0,-300.0,-2311.15,0.0
300.0,-300.0,-2312.08,0.0
300.0,-300.0,-2299.99,0.0
300.0,-300.0,-2275.85,0.0
300.0,-300.0,-2239.02,0.0
300.0,-300.0,-2190.94,0.0
300.0,-300.0,-2132.28,0.0
300.0,-300.0,-2066.04,0.0
300.0,-300.0,-1994.26,0.0
300.0,-300.0,-1918.78,0.0
300.0,-300.0,-1842.11,0.0
300.0,-300.0,-1766.45,0.0
300.0,-300.0,-1692.39,0.0
300.0,-300.0,-1622.9,0.0
300.0,-300.0,-1560.71,0.0
300.0,-300.0,-1504.78,0.0
300.0,-300.0,-1456.44,0.0
300.0,-300.0,-1416.36,0.0
300.0,-300.0,-1384.36,0.0
300.0,-300.0,-1359.46,0.0
300.0,-300.0,-1340.81,0.0
300.0,-300.0,-1325.4,0.0
300.0,-300.0,-1312.37,0.0
300.0,-300.0,-1298.47,0.0
300.0,-300.0,-1281.7,0.0
300.0,-300.0,-1260.34,0.0
300.0,-300.0,-1233.1,0.0
300.0,-300.0,-1199.46,0.0
300.0,-300.0,-1159.74,0.0
300.0,-300.0,-1114.72,0.0
300.0,-300.0,-1066.32,0.0
300.0,-300.0,-1015.98,0.0
300.0,-300.0,-965.47,0.0
300.0,-300.0,-917.08,0.0
300.0,-300.0,-871.51,0.0
300.0,-300.0,-831.15,0.0
300.0,-300.0,-796.11,0.0
300.0,-300.0,-767.77,0.0
300.0,-300.0,-746.3,0.0
300.0,-300.0,-732.47,0.0
300.0,-300.0,-726.93,0.0
300.0,-300.0,-731.38,0.0
300.0,-300.0,-745.65,0.0
300.0,-300.0,-770.76,0.0
300.0,-300.0,-807.83,0.0
300.0,-300.0,-856.24,0.0
300.0,-300.0,-915.91,0.0
300.0,-300.0,-986.27,0.0
300.0,-300.0,-1065.04,0.0
300.0,-300.0,-1150.65,0.0
300.0,-300.0,-1240.41,0.0
300.0,-300.0,-1331.8,0.0
300.0,-300.0,-1422.59,0.0
300.0,-300.0,-1510.82,0.0
300.0,-300.0,-1594.96,0.0
300.0,-300.0,-1673.62,0.0
300.0,-300.0,-1747.2,0.0
300.0,-300.0,-1815.45,0.0
300.0,-300.0,-1878.77,0.0
300.0,-300.0,-1937.71,0.0
300.0,-300.0,-1992.08,0.0
300.0,-300.0,-2041.51,0.0
300.0,-300.0,-2086.79,0.0
300.0,-300.0,-2126.46,0.0
300.0,-300.0,-2159.74,0.0
300.0,-300.0,-2186.03,0.0
300.0,-300.0,-2205.1,0.0
300.0,-300.0,-2216.68,0.0
300.0,-300.0,-2221.54,0.0
300.0,-300.0,-2221.18,0.0
300.0,-300.0,-2217.65,0.0
300.0,-300.0,-2213.03,0.0
300.0,-300.0,-2210.18,0.0
300.0,-300.0,-2210.48,0.0
300.0,-300.0,-2215.94,0.0
300.0,-300.0,-2227.48,0.0
300.0,-300.0,-2244.25,0.0
300.0,-300.0,-2265.62,0.0
300.0,-300.0,-2289.5,0.0
300.0,-300.0,-2313.07,0.0
300.0,-300.0,-2334.17,0.0
300.0,-300.0,-2349.99,0.0
300.0,-300.0,-2358.08,0.0
300.0,-300.0,-2356.04,0.0
300.0,-300.0,-2343.85,0.0
300.0,-300.0,-2320.54,0.0
300.0,-300.0,-2286.65,0.0
300.0,-300.0,-2243.1,0.0
300.0,-300.0,-2190.88,0.0
300.0,-300.0,-2132.16,0.0
300.0,-300.0,-2066.74,0.0
300.0,-300.0,-1997.7,0.0
300.0,-300.0,-1926.03,0.0
300.0,-300.0,-1854.92,0.0
300.0,-300.0,-1785.15,0.0
300.0,-300.0,-1718.48,0.0
300.0,-300.0,-1656.66,0.0
300.0,-300.0,-1602.1,0.0
300.0,-300.0,-1555.72,0.0
300.0,-300.0,-1518.46,0.0
300.0,-300.0,-1490.45,0.0
300.0,-300.0,-1471.45,0.0
300.0,-300.0,-1459.52,0.0
300.0,-300.0,-1453.96,0.0
300.0,-300.0,-1450.08,0.0
300.0,-300.0,-1445.89,0.0
300.0,-300.0,-1438.36,0.0
300.0,-300.0,-1424.54,0.0
300.0,-300.0,-1402.89,0.0
300.0,-300.0,-1371.95,0.0
300.0,-300.0,-1331.31,0.0
300.0,-300.0,-1282.03,0.0
300.0,-300.0,-1226.24,0.0
300.0,-300.0,-1165.43,0.0
300.0,-300.0,-1102.06,0.0
300.0,-300.0,-1039.2,0.0
300.0,-300.0,-978.96,0.0
300.0,-300.0,-923.19,0.0
300.0,-300.0,-873.37,0.0
300.0,-300.0,-830.81,0.0
300.0,-300.0,-796.54,0.0
300.0,-300.0,-770.91,0.0
300.0,-300.0,-754.51,0.0
300.0,-300.0,-748.51,0.0
300.0,-300.0,-753.43,0.0
300.0,-300.0,-770.17,0.0
300.0,-300.0,-799.48,0.0
300.0,-300.0,-841.66,0.0
300.0,-300.0,-896.84,0.0
300.0,-300.0,-964.91,0.0
300.0,-300.0,-1043.56,0.0
300.0,-300.0,-1131.89,0.0
300.0,-300.0,-1226.11,0.0
300.0,-300.0,-1324.8,0.0
300.0,-300.0,-1424.45,0.0
300.0,-300.0,-1522.6,0.0
300.0,-300.0,-1616.78,0.0
300.0,-300.0,-1705.1,0.0
300.0,-300.0,-1786.46,0.0
300.0,-300.0,-1860.95,0.0
300.0,-300.0,-1927.92,0.0
300.0,-300.0,-1987.4,0.0
300.0,-300.0,-2039.68,0.0
300.0,-300.0,-2084.38,0.0
300.0,-300.0,-2121.62,0.0
300.0,-300.0,-2151.1,0.0
300.0,-300.0,-2171.84,0.0
300.0,-300.0,-2183.43,0.0
300.0,-300.0,-2185.52,0.0
300.0,-300.0,-2178.37,0.0
300.0,-300.0,-2163.18,0.0
300.0,-300.0,-2141.35,0.0
300.0,-300.0,-2115.38,0.0
300.0,-300.0,-2087.4,0.0
300.0,-300.0,-2060.51,0.0
300.0,-300.0,-2037.37,0.0
300.0,-300.0,-2020.5,0.0
300.0,-300.0,-2010.84,0.0
300.0,-300.0,-2009.45,0.0
300.0,-300.0,-2014.61,0.0
300.0,-300.0,-2025.84,0.0
300.0,-300.0,-2040.15,0.0
300.0,-300.0,-2054.8,0.0
300.0,-300.0,-2067.22,0.0
300.0,-300.0,-2074.45,0.0
300.0,-300.0,-2074.44,0.0
300.0,-300.0,-2065.1,0.0
300.0,-300.0,-2046.15,0.0
300.0,-300.0,-2016.48,0.0
300.0,-300.0,-1973.7,0.0
300.0,-300.0,-1921.24,0.0
300.0,-300.0,-1858.67,0.0
300.0,-300.0,-1787.55,0.0
300.0,-300.0,-1709.76,0.0
300.0,-300.0,-1627.39,0.0
300.0,-300.0,-1542.78,0.0
300.0,-300.0,-1458.57,0.0
300.0,-300.0,-1377.57,0.0
300.0,-300.0,-1302.65,0.0
300.0,-300.0,-1236.38,0.0
300.0,-300.0,-1180.14,0.0
300.0,-300.0,-1137.32,0.0
300.0,-300.0,-1106.73,0.0
300.0,-300.0,-1087.76,0.0
300.0,-300.0,-1079.18,0.0
300.0,-300.0,-1077.91,0.0
300.0,-300.0,-1080.96,0.0
300.0,-300.0,-1085.13,0.0
300.0,-300.0,-1086.62,0.0
300.0,-300.0,-1083.51,0.0
300.0,-300.0,-1073.75,0.0
300.0,-300.0,-1056.51,0.0
300.0,-300.0,-1032.49,0.0
300.0,-300.0,-1002.8,0.0
300.0,-300.0,-969.43,0.0
300.0,-300.0,-935.01,0.0
300.0,-300.0,-901.65,0.0
300.0,-300.0,-871.29,0.0
300.0,-300.0,-845.82,0.0
300.0,-300.0,-827.57,0.0
300.0,-300.0,-816.66,0.0
300.0,-300.0,-815.04,0.0
300.0,-300.0,-822.69,0.0
300.0,-300.0,-841.39,0.0
300.0,-300.0,-872.42,0.0
300.0,-300.0,-917.78,0.0
300.0,-300.0,-978.71,0.0
300.0,-300.0,-1056.57,0.0
300.0,-300.0,-1152.04,0.0
300.0,-300.0,-1263.87,0.0
300.0,-300.0,-1389.58,0.0
300.0,-300.0,-1525.85,0.0
300.0,-300.0,-1667.59,0.0
300.0,-300.0,-1809.53,0.0
300.0,-300.0,-1945.49,0.0
300.0,-300.0,-2070.7,0.0
300.0,-300.0,-2181.75,0.0
300.0,-300.0,-2277.44,0.0
300.0,-300.0,-2358.92,0.0
300.0,-300.0,-2429.33,0.0
300.0,-300.0,-2493.09,0.0
300.0,-300.0,-2556.96,0.0
300.0,-300.0,-2626.25,0.0
300.0,-300.0,-2705.77,0.0
300.0,-300.0,-2797.9,0.0
300.0,-300.0,-2902.42,0.0
300.0,-300.0,-3016.56,0.0
300.0,-300.0,-3134.07,0.0
300.0,-300.0,-3250.86,0.0
300.0,-300.0,-3355.55,0.0
300.0,-300.0,-3440.38,0.0
300.0,-300.0,-3498.0,0.0
300.0,-300.0,-3523.06,0.0
300.0,-300.0,-3512.62,0.0
300.0,-300.0,-3466.79,0.0
300.0,-300.0,-3387.75,0.0
300.0,-300.0,-3280.25,0.0
300.0,-300.0,-3150.53,0.0
300.0,-300.0,-3003.4,0.0
300.0,-300.0,-2845.97,0.0
300.0,-300.0,-2683.44,0.0
300.0,-300.0,-2519.07,0.0
300.0,-300.0,-2355.98,0.0
300.0,-300.0,-2196.92,0.0
300.0,-300.0,-2042.93,0.0
300.0,-300.0,-1896.81,0.0
300.0,-300.0,-1760.79,0.0
300.0,-300.0,-1637.9,0.0
300.0,-300.0,-1530.65,0.0
300.0,-300.0,-1442.56,0.0
300.0,-300.0,-1376.72,0.0
300.0,-300.0,-1334.47,0.0
300.0,-300.0,-1315.46,0.0
300.0,-300.0,-1318.87,0.0
300.0,-300.0,-1341.13,0.0
300.0,-300.0,-1377.8,0.0
300.0,-300.0,-1422.68,0.0
300.0,-300.0,-1467.9,0.0
300.0,-300.0,-1509.49,0.0
300.0,-300.0,-1541.54,0.0
300.0,-300.0,-1563.83,0.0
300.0,-300.0,-1572.39,0.0
300.0,-300.0,-1567.71,0.0
300.0,-300.0,-1552.46,0.0
300.0,-300.0,-1528.87,0.0
300.0,-300.0,-1500.01,0.0
300.0,-300.0,-1467.37,0.0
300.0,-300.0,-1432.38,0.0
300.0,-300.0,-1393.83,0.0
300.0,-300.0,-1350.6,0.0
300.0,-300.0,-1299.59,0.0
300.0,-300.0,-1239.24,0.0
300.0,-300.0,-1166.2,0.0
300.0,-300.0,-1079.82,0.0
300.0,-300.0,-980.09,0.0
300.0,-300.0,-869.19,0.0
300.0,-300.0,-750.6,0.0
300.0,-300.0,-630.6,0.0
300.0,-300.0,-512.32,0.0
300.0,-300.0,-402.73,0.0
300.0,-300.0,-305.78,0.0
300.0,-300.0,-225.9,0.0
300.0,-300.0,-166.08,0.0
300.0,-300.0,-127.37,0.0
300.0,-300.0,-109.72,0.0
300.0,-300.0,-112.8,0.0
300.0,-300.0,-134.73,0.0
300.0,-300.0,-175.46,0.0
300.0,-300.0,-232.99,0.0
300.0,-300.0,-306.78,0.0
300.0,-300.0,-394.43,0.0
300.0,-300.0,-496.09,0.0
300.0,-300.0,-610.4,0.0
300.0,-300.0,-735.75,0.0
300.0,-300.0,-870.03,0.0
300.0,-300.0,-1010.49,0.0
300.0,-300.0,-1154.14,0.0
300.0,-300.0,-1299.63,0.0
300.0,-300.0,-1443.89,0.0
300.0,-300.0,-1584.75,0.0
300.0,-300.0,-1722.13,0.0
300.0,-300.0,-1856.38,0.0
300.0,-300.0,-1987.79,0.0
300.0,-300.0,-2118.16,0.0
300.0,-300.0,-2248.14,0.0
300.0,-300.0,-2379.13,0.0
300.0,-300.0,-2512.32,0.0
300.0,-300.0,-2645.96,0.0
300.0,-300.0,-2777.5,0.0
300.0,-300.0,-2903.69,0.0
300.0,-300.0,-3022.13,0.0
300.0,-300.0,-3126.08,0.0
300.0,-300.0,-3211.37,0.0
300.0,-300.0,-3273.89,0.0
300.0,-300.0,-3310.53,0.0
300.0,-300.0,-3320.0,0.0
300.0,-300.0,-3302.35,0.0
300.0,-300.0,-3259.6,0.0
300.0,-300.0,-3196.67,0.0
300.0,-300.0,-3115.46,0.0
300.0,-300.0,-3023.93,0.0
300.0,-300.0,-2927.89,0.0
300.0,-300.0,-2832.23,0.0
300.0,-300.0,-2742.55,0.0
300.0,-300.0,-2661.74,0.0
300.0,-300.0,-2592.73,0.0
300.0,-300.0,-2536.15,0.0
300.0,-300.0,-2492.93,0.0
300.0,-300.0,-2461.58,0.0
300.0,-300.0,-2441.8,0.0
300.0,-300.0,-2429.97,0.0
300.0,-300.0,-2423.08,0.0
300.0,-300.0,-2417.28,0.0
300.0,-300.0,-2408.96,0.0
300.0,-300.0,-2393.4,0.0
300.0,-300.0,-2367.0,0.0
300.0,-300.0,-2324.28,0.0
300.0,-300.0,-2263.7,0.0
300.0,-300.0,-2182.03,0.0
300.0,-300.0,-2079.24,0.0
300.0,-300.0,-1955.21,0.0
300.0,-300.0,-1812.07,0.0
300.0,-300.0,-1652.29,0.0
300.0,-300.0,-1480.71,0.0
300.0,-300.0,-1302.43,0.0
300.0,-300.0,-1123.04,0.0
300.0,-300.0,-946.96,0.0
300.0,-300.0,-780.9,0.0
300.0,-300.0,-630.63,0.0
300.0,-300.0,-498.13,0.0
300.0,-300.0,-385.79,0.0
300.0,-300.0,-295.28,0.0
300.0,-300.0,-226.42,0.0
300.0,-300.0,-178.71,0.0
300.0,-300.0,-149.76,0.0
300.0,-300.0,-137.17,0.0
300.0,-300.0,-138.47,0.0
300.0,-300.0,-151.21,0.0
300.0,-300.0,-172.08,0.0
300.0,-300.0,-199.63,0.0
300.0,-300.0,-231.33,0.0
300.0,-300.0,-266.81,0.0
300.0,-300.0,-304.55,0.0
300.0,-300.0,-345.21,0.0
300.0,-300.0,-388.61,0.0
300.0,-300.0,-436.95,0.0
300.0,-300.0,-489.38,0.0
300.0,-300.0,-547.59,0.0
300.0,-300.0,-610.28,0.0
300.0,-300.0,-679.09,0.0
300.0,-300.0,-751.74,0.0
300.0,-300.0,-826.69,0.0
300.0,-300.0,-900.68,0.0
300.0,-300.0,-971.75,0.0
300.0,-300.0,-1036.1,0.0
300.0,-300.0,-1090.24,0.0
300.0,-300.0,-1132.68,0.0
300.0,-300.0,-1163.3,0.0
300.0,-300.0,-1180.92,0.0
300.0,-300.0,-1188.62,0.0
300.0,-300.0,-1189.25,0.0
300.0,-300.0,-1187.57,0.0
300.0,-300.0,-1187.77,0.0
300.0,-300.0,-1195.05,0.0
300.0,-300.0,-1213.06,0.0
300.0,-300.0,-1244.21,0.0
300.0,-300.0,-1290.13,0.0
300.0,-300.0,-1350.69,0.0
300.0,-300.0,-1422.38,0.0
300.0,-300.0,-1502.34,0.0
300.0,-300.0,-1586.08,0.0
300.0,-300.0,-1668.42,0.0
300.0,-300.0,-1743.89,0.0
300.0,-300.0,-1808.79,0.0
300.0,-300.0,-1859.73,0.0
300.0,-300.0,-1895.16,0.0
300.0,-300.0,-1916.33,0.0
300.0,-300.0,-1923.08,0.0
300.0,-300.0,-1917.9,0.0
300.0,-300.0,-1904.39,0.0
300.0,-300.0,-1884.95,0.0
300.0,-300.0,-1860.3,0.0
300.0,-300.0,-1833.35,0.0
300.0,-300.0,-1805.51,0.0
300.0,-300.0,-1776.48,0.0
300.0,-300.0,-1746.61,0.0
300.0,-300.0,-1714.9,0.0
300.0,-300.0,-1682.2,0.0
300.0,-300.0,-1648.42,0.0
300.0,-300.0,-1614.77,0.0
300.0,-300.0,-1582.5,0.0
300.0,-300.0,-1554.23,0.0
300.0,-300.0,-1531.26,0.0
300.0,-300.0,-1516.22,0.0
300.0,-300.0,-1511.37,0.0
300.0,-300.0,-1516.87,0.0
300.0,-300.0,-1533.28,0.0
300.0,-300.0,-1561.23,0.0
300.0,-300.0,-1598.62,0.0
300.0,-300.0,-1644.37,0.0
300.0,-300.0,-1695.94,0.0
300.0,-300.0,-1752.33,0.0
300.0,-300.0,-1811.14,0.0
300.0,-300.0,-1871.85,0.0
300.0,-300.0,-1934.15,0.0
300.0,-300.0,-1996.62,0.0
300.0,-300.0,-2059.15,0.0
300.0,-300.0,-2122.49,0.0
300.0,-300.0,-2184.88,0.0
300.0,-300.0,-2245.96,0.0
300.0,-300.0,-2304.42,0.0
300.0,-300.0,-2358.7,0.0
300.0,-300.0,-2406.59,0.0
300.0,-300.0,-2446.28,0.0
300.0,-300.0,-2473.73,0.0
300.0,-300.0,-2488.77,0.0
300.0,-300.0,-2489.69,0.0
300.0,-300.0,-2477.88,0.0
300.0,-300.0,-2452.7,0.0
300.0,-300.0,-2417.91,0.0
300.0,-300.0,-2376.27,0.0
300.0,-300.0,-2332.31,0.0
300.0,-300.0,-2289.28,0.0
300.0,-300.0,-2251.69,0.0
300.0,-300.0,-2221.48,0.0
300.0,-300.0,-2200.95,0.0
300.0,-300.0,-2190.14,0.0
300.0,-300.0,-2187.36,0.0
300.0,-300.0,-2190.34,0.0
300.0,-300.0,-2195.75,0.0
300.0,-300.0,-2198.91,0.0
300.0,-300.0,-2196.18,0.0
300.0,-300.0,-2183.52,0.0
300.0,-300.0,-2158.11,0.0
300.0,-300.0,-2117.67,0.0
300.0,-300.0,-2063.25,0.0
300.0,-300.0,-1994.04,0.0
300.0,-300.0,-1913.95,0.0
300.0,-300.0,-1825.54,0.0
300.0,-300.0,-1732.92,0.0
300.0,-300.0,-1639.6,0.0
300.0,-300.0,-1549.33,0.0
300.0,-300.0,-1464.83,0.0
300.0,-300.0,-1388.31,0.0
300.0,-300.0,-1320.57,0.0
300.0,-300.0,-1261.48,0.0
300.0,-300.0,-1211.67,0.0
300.0,-300.0,-1169.56,0.0
300.0,-300.0,-1133.48,0.0
300.0,-300.0,-1103.4,0.0
300.0,-300.0,-1078.19,0.0
300.0,-300.0,-1058.58,0.0
300.0,-300.0,-1044.87,0.0
300.0,-300.0,-1037.74,0.0
300.0,-300.0,-1038.84,0.0
300.0,-300.0,-1048.68,0.0
300.0,-300.0,-1068.63,0.0
300.0,-300.0,-1098.58,0.0
300.0,-300.0,-1137.98,0.0
300.0,-300.0,-1185.89,0.0
300.0,-300.0,-1240.72,0.0
300.0,-300.0,-1300.45,0.0
300.0,-300.0,-1362.69,0.0
300.0,-300.0,-1425.64,0.0
