Tran,San,Gia_tri_PPG,Truc_0
300,-300,-1577.31,0
300,-300,-1438.01,0
300,-300,-1279.79,0
300,-300,-1112.37,0
300,-300,-943.93,0
300,-300,-784.03,0
300,-300,-637.3,0
300,-300,-510.27,0
300,-300,-404.61,0
300,-300,-321.7,0
300,-300,-260.81,0
300,-300,-222.21,0
300,-300,-205.8,0
300,-300,-211.52,0
300,-300,-241.12,0
300,-300,-294.56,0
300,-300,-372.68,0
300,-300,-475.34,0
300,-300,-600.47,0
300,-300,-745.7,0
300,-300,-906.64,0
300,-300,-1077.62,0
300,-300,-1252.39,0
300,-300,-1424.92,0
300,-300,-1590.05,0
300,-300,-1742.82,0
300,-300,-1881.09,0
300,-300,-2003.19,0
300,-300,-2110.14,0
300,-300,-2203.67,0
300,-300,-2285.86,0
300,-300,-2358.26,0
300,-300,-2421.5,0
300,-300,-2474.75,0
300,-300,-2510.35,0
300,-300,-2529.57,0
300,-300,-2526.21,0
300,-300,-2497.49,0
300,-300,-2440.91,0
300,-300,-2357.87,0
300,-300,-2252.02,0
300,-300,-2130.36,0
300,-300,-2002.7,0
300,-300,-1880.09,0
300,-300,-1774.03,0
300,-300,-1695.46,0
300,-300,-1651.29,0
300,-300,-1644.95,0
300,-300,-1676.07,0
300,-300,-1738.56,0
300,-300,-1822.46,0
300,-300,-1914.98,0
300,-300,-2001.87,0
300,-300,-2069.72,0
300,-300,-2107.56,0
300,-300,-2106.88,0
300,-300,-2063.59,0
300,-300,-1979.51,0
300,-300,-1859.32,0
300,-300,-1711.02,0
300,-300,-1544.79,0
300,-300,-1370.65,0
300,-300,-1198.66,0
300,-300,-1036.59,0
300,-300,-889.72,0
300,-300,-760.29,0
300,-300,-652.08,0
300,-300,-563.11,0
300,-300,-491.83,0
300,-300,-438.14,0
300,-300,-402.33,0
300,-300,-385.7,0
300,-300,-390.89,0
300,-300,-421.93,0
300,-300,-480.35,0
300,-300,-567.89,0
300,-300,-685.35,0
300,-300,-829.96,0
300,-300,-998.05,0
300,-300,-1183.78,0
300,-300,-1379.79,0
300,-300,-1578.46,0
300,-300,-1772.46,0
300,-300,-1957.12,0
300,-300,-2126.83,0
300,-300,-2279.89,0
300,-300,-2416.54,0
300,-300,-2536.99,0
300,-300,-2643.82,0
300,-300,-2738.48,0
300,-300,-2822.79,0
300,-300,-2895.97,0
300,-300,-2957.76,0
300,-300,-3006.82,0
300,-300,-3039.92,0
300,-300,-3055.04,0
300,-300,-3048.71,0
300,-300,-3020.6,0
300,-300,-2970.45,0
300,-300,-2900.9,0
300,-300,-2814.84,0
300,-300,-2717.79,0
300,-300,-2615.43,0
300,-300,-2509.84,0
300,-300,-2411.58,0
300,-300,-2322.08,0
300,-300,-2246.13,0
300,-300,-2185.2,0
300,-300,-2139.37,0
300,-300,-2107.68,0
300,-300,-2087.54,0
300,-300,-2075.43,0
300,-300,-2066.57,0
300,-300,-2056.76,0
300,-300,-2041.45,0
300,-300,-2015.28,0
300,-300,-1975.49,0
300,-300,-1918.76,0
300,-300,-1843.12,0
300,-300,-1747.46,0
300,-300,-1632.73,0
300,-300,-1500.7,0
300,-300,-1356.51,0
300,-300,-1202.28,0
300,-300,-1042.99,0
300,-300,-888.07,0
300,-300,-738.46,0
300,-300,-598.49,0
300,-300,-472.21,0
300,-300,-361.88,0
300,-300,-268.99,0
300,-300,-194.09,0
300,-300,-138.65,0
300,-300,-100.96,0
300,-300,-82.31,0
300,-300,-83.16,0
300,-300,-105.07,0
300,-300,-149.63,0
300,-300,-219.5,0
300,-300,-316.14,0
300,-300,-440.32,0
300,-300,-591.6,0
300,-300,-769.08,0
300,-300,-967.59,0
300,-300,-1182.23,0
300,-300,-1405.82,0
300,-300,-1632.07,0
300,-300,-1853.88,0
300,-300,-2065.27,0
300,-300,-2261.32,0
300,-300,-2439.29,0
300,-300,-2597.76,0
300,-300,-2737.42,0
300,-300,-2858.68,0
300,-300,-2962.96,0
300,-300,-3051.39,0
300,-300,-3123.88,0
300,-300,-3179.65,0
300,-300,-3217.24,0
300,-300,-3234.65,0
300,-300,-3230.45,0
300,-300,-3203.69,0
300,-300,-3155.43,0
300,-300,-3089.39,0
300,-300,-3008.2,0
300,-300,-2919.98,0
300,-300,-2831.95,0
300,-300,-2751.44,0
300,-300,-2685.06,0
300,-300,-2636.88,0
300,-300,-2608.11,0
300,-300,-2591,0
300,-300,-2585.08,0
300,-300,-2580.87,0
300,-300,-2568.55,0
300,-300,-2540.31,0
300,-300,-2489.15,0
300,-300,-2410.87,0
300,-300,-2304.69,0
300,-300,-2174.08,0
300,-300,-2026.16,0
300,-300,-1870.21,0
300,-300,-1716.07,0
300,-300,-1573.57,0
300,-300,-1449.64,0
300,-300,-1348.74,0
300,-300,-1272.34,0
300,-300,-1216.23,0
300,-300,-1174.43,0
300,-300,-1138.21,0
300,-300,-1098.34,0
300,-300,-1048.4,0
300,-300,-980.72,0
300,-300,-892.2,0
300,-300,-787.07,0
300,-300,-664.55,0
300,-300,-532.62,0
300,-300,-398.64,0
300,-300,-270.59,0
300,-300,-155.47,0
300,-300,-57.52,0
300,-300,20.48,0
300,-300,78.8,0
300,-300,118.4,0
300,-300,142.74,0
300,-300,154.37,0
300,-300,155.03,0
300,-300,145.63,0
300,-300,124.65,0
300,-300,89.72,0
300,-300,36.46,0
300,-300,-39.35,0
300,-300,-142.19,0
300,-300,-272.27,0
300,-300,-432,0
300,-300,-618.5,0
300,-300,-827.52,0
300,-300,-1051.81,0
300,-300,-1284.36,0
300,-300,-1517.43,0
300,-300,-1743.68,0
300,-300,-1957.67,0
300,-300,-2155.87,0
300,-300,-2334.82,0
300,-300,-2495.51,0
300,-300,-2637.72,0
300,-300,-2763.32,0
300,-300,-2872.27,0
300,-300,-2964.85,0
300,-300,-3039.68,0
300,-300,-3094.99,0
300,-300,-3128.88,0
300,-300,-3139.08,0
300,-300,-3123.44,0
300,-300,-3083.37,0
300,-300,-3021.43,0
300,-300,-2942.69,0
300,-300,-2853.47,0
300,-300,-2762.45,0
300,-300,-2677.84,0
300,-300,-2607.4,0
300,-300,-2552.52,0
300,-300,-2517.51,0
300,-300,-2499.94,0
300,-300,-2495.53,0
300,-300,-2497.08,0
300,-300,-2496.33,0
300,-300,-2484.67,0
300,-300,-2455.79,0
300,-300,-2405.12,0
300,-300,-2331.89,0
300,-300,-2239.19,0
300,-300,-2131.94,0
300,-300,-2017.88,0
300,-300,-1904.52,0
300,-300,-1800.06,0
300,-300,-1709.3,0
300,-300,-1635.14,0
300,-300,-1576.21,0
300,-300,-1528.68,0
300,-300,-1486.75,0
300,-300,-1441.32,0
300,-300,-1390.72,0
300,-300,-1323.26,0
300,-300,-1236.45,0
300,-300,-1128.99,0
300,-300,-1004.17,0
300,-300,-866.74,0
300,-300,-723.41,0
300,-300,-582.26,0
300,-300,-450.06,0
300,-300,-332.66,0
300,-300,-234.77,0
300,-300,-158.6,0
300,-300,-104.64,0
300,-300,-71.91,0
300,-300,-58.52,0
300,-300,-62.47,0
300,-300,-82.93,0
300,-300,-118.98,0
300,-300,-171.98,0
300,-300,-242.92,0
300,-300,-332.13,0
300,-300,-441.89,0
300,-300,-572.04,0
300,-300,-721.72,0
300,-300,-888.25,0
300,-300,-1066.44,0
300,-300,-1252.07,0
300,-300,-1439.26,0
300,-300,-1623.36,0
300,-300,-1798.92,0
300,-300,-1962.65,0
300,-300,-2112.56,0
300,-300,-2247.84,0
300,-300,-2369.51,0
300,-300,-2477.59,0
300,-300,-2573.27,0
300,-300,-2657.51,0
300,-300,-2728.95,0
300,-300,-2788.26,0
300,-300,-2832.03,0
300,-300,-2858.95,0
300,-300,-2867.04,0
300,-300,-2855.74,0
300,-300,-2825.15,0
300,-300,-2776.92,0
300,-300,-2714.04,0
300,-300,-2640.58,0
300,-300,-2561.57,0
300,-300,-2476.12,0
300,-300,-2394.02,0
300,-300,-2316.54,0
300,-300,-2246.33,0
300,-300,-2184.51,0
300,-300,-2130.79,0
300,-300,-2085.26,0
300,-300,-2045.82,0
300,-300,-2011.74,0
300,-300,-1981.52,0
300,-300,-1953.8,0
300,-300,-1927.51,0
300,-300,-1900.57,0
300,-300,-1871.9,0
300,-300,-1838.55,0
300,-300,-1798.17,0
300,-300,-1747.82,0
300,-300,-1684.17,0
300,-300,-1605.14,0
300,-300,-1509.25,0
300,-300,-1396.82,0
300,-300,-1268.07,0
300,-300,-1129.61,0
300,-300,-983.89,0
300,-300,-836.46,0
300,-300,-693.15,0
300,-300,-559.95,0
300,-300,-441.17,0
300,-300,-340.77,0
300,-300,-259.53,0
300,-300,-198.29,0
300,-300,-155.63,0
300,-300,-129.4,0
300,-300,-118.72,0
300,-300,-122.48,0
300,-300,-140.7,0
300,-300,-174.99,0
300,-300,-227.7,0
300,-300,-301.43,0
300,-300,-398.92,0
300,-300,-523.1,0
300,-300,-672.52,0
300,-300,-845.96,0
300,-300,-1039.33,0
300,-300,-1247.3,0
300,-300,-1462.32,0
300,-300,-1677.57,0
300,-300,-1885.36,0
300,-300,-2080.32,0
300,-300,-2258.11,0
300,-300,-2418.4,0
300,-300,-2559.05,0
300,-300,-2682.74,0
300,-300,-2790.16,0
300,-300,-2883.55,0
300,-300,-2963.85,0
300,-300,-3030.94,0
300,-300,-3083.12,0
300,-300,-3118.04,0
300,-300,-3132.93,0
300,-300,-3126.46,0
300,-300,-3096.79,0
300,-300,-3045.75,0
300,-300,-2976.5,0
300,-300,-2895.08,0
300,-300,-2808.88,0
300,-300,-2726.09,0
300,-300,-2654.88,0
300,-300,-2602.61,0
300,-300,-2573.38,0
300,-300,-2563.85,0
300,-300,-2573.53,0
300,-300,-2595.03,0
300,-300,-2619.31,0
300,-300,-2635.7,0
300,-300,-2634.25,0
300,-300,-2606.45,0
300,-300,-2547.73,0
300,-300,-2456.93,0
300,-300,-2335.92,0
300,-300,-2193.57,0
300,-300,-2037.51,0
300,-300,-1879.55,0
300,-300,-1730.07,0
300,-300,-1597.95,0
300,-300,-1488.73,0
300,-300,-1404.38,0
300,-300,-1343.16,0
300,-300,-1299.97,0
300,-300,-1267.54,0
300,-300,-1235.1,0
300,-300,-1199.31,0
300,-300,-1147.92,0
300,-300,-1077.5,0
300,-300,-986.62,0
300,-300,-877.33,0
300,-300,-754.75,0
300,-300,-624.16,0
300,-300,-493.05,0
300,-300,-368,0
300,-300,-254.21,0
300,-300,-155.93,0
300,-300,-74.97,0
300,-300,-11.93,0
300,-300,34.05,0
300,-300,64.19,0
300,-300,79.66,0
300,-300,81.38,0
300,-300,68.59,0
300,-300,38.49,0
300,-300,-10,0
300,-300,-80.36,0
300,-300,-175.46,0
300,-300,-297.04,0
300,-300,-444.9,0
300,-300,-617.34,0
300,-300,-810.63,0
300,-300,-1018.65,0
300,-300,-1235.47,0
300,-300,-1453.51,0
300,-300,-1666.5,0
300,-300,-1867.99,0
300,-300,-2054.12,0
300,-300,-2222.06,0
300,-300,-2371.18,0
300,-300,-2501.58,0
300,-300,-2614.6,0
300,-300,-2711.02,0
300,-300,-2791.91,0
300,-300,-2856.72,0
300,-300,-2906.21,0
300,-300,-2936.42,0
300,-300,-2947.65,0
300,-300,-2937.72,0
300,-300,-2906.42,0
300,-300,-2854.37,0
300,-300,-2784.86,0
300,-300,-2702.79,0
300,-300,-2614.64,0
300,-300,-2526.64,0
300,-300,-2445.87,0
300,-300,-2375.99,0
300,-300,-2321.75,0
300,-300,-2283.26,0
300,-300,-2257.99,0
300,-300,-2241.45,0
300,-300,-2227.51,0
300,-300,-2208.73,0
300,-300,-2177.42,0
300,-300,-2130.75,0
300,-300,-2065.75,0
300,-300,-1982.35,0
300,-300,-1884.4,0
300,-300,-1777.17,0
300,-300,-1667.76,0
300,-300,-1563.18,0
300,-300,-1469.25,0
300,-300,-1390.25,0
300,-300,-1327.53,0
300,-300,-1279.83,0
300,-300,-1242.23,0
300,-300,-1213.12,0
300,-300,-1182.49,0
300,-300,-1144.71,0
300,-300,-1094.74,0
300,-300,-1029.96,0
300,-300,-949.62,0
300,-300,-855.84,0
300,-300,-753.08,0
300,-300,-645.79,0
300,-300,-541.02,0
300,-300,-443.07,0
300,-300,-356.95,0
300,-300,-286.01,0
300,-300,-231.82,0
300,-300,-194.47,0
300,-300,-173.58,0
300,-300,-168.43,0
300,-300,-178.92,0
300,-300,-205.07,0
300,-300,-247.44,0
300,-300,-307.95,0
300,-300,-388.64,0
300,-300,-491.33,0
300,-300,-616.82,0
300,-300,-764.9,0
300,-300,-933.71,0
300,-300,-1119.59,0
300,-300,-1317.72,0
300,-300,-1522.43,0
300,-300,-1726.71,0
300,-300,-1925.24,0
300,-300,-2112.39,0
300,-300,-2284.72,0
300,-300,-2439.51,0
300,-300,-2575.77,0
300,-300,-2693.54,0
300,-300,-2794.5,0
300,-300,-2879.05,0
300,-300,-2948.39,0
300,-300,-3001.17,0
300,-300,-3038.37,0
300,-300,-3058.62,0
300,-300,-3060.24,0
300,-300,-3042.76,0
300,-300,-3006.07,0
300,-300,-2952.01,0
300,-300,-2884.4,0
300,-300,-2807.74,0
300,-300,-2728,0
300,-300,-2652.21,0
300,-300,-2586.79,0
300,-300,-2537.96,0
300,-300,-2509.01,0
300,-300,-2501.56,0
300,-300,-2513.51,0
300,-300,-2540.31,0
300,-300,-2569.14,0
300,-300,-2594.83,0
300,-300,-2606,0
300,-300,-2594.4,0
300,-300,-2552.02,0
300,-300,-2476.28,0
300,-300,-2366.51,0
300,-300,-2227.62,0
300,-300,-2065.94,0
300,-300,-1892.35,0
300,-300,-1718.45,0
300,-300,-1554.47,0
300,-300,-1409.88,0
300,-300,-1291.74,0
300,-300,-1203.22,0
300,-300,-1143.07,0
300,-300,-1107.09,0
300,-300,-1087.72,0
300,-300,-1075.57,0
300,-300,-1061.54,0
300,-300,-1037.56,0
300,-300,-996.93,0
300,-300,-937.34,0
300,-300,-856.54,0
300,-300,-757.05,0
300,-300,-644.42,0
300,-300,-523.95,0
300,-300,-402.86,0
300,-300,-286.84,0
300,-300,-181.09,0
300,-300,-88.2,0
300,-300,-11.08,0
300,-300,50.52,0
300,-300,96.59,0
300,-300,127.77,0
300,-300,144.01,0
300,-300,144.38,0
300,-300,126.61,0
300,-300,88.29,0
300,-300,24.84,0
300,-300,-66.12,0
300,-300,-187.07,0
300,-300,-338.83,0
300,-300,-520.76,0
300,-300,-728.76,0
300,-300,-957.54,0
300,-300,-1199.56,0
300,-300,-1446.99,0
300,-300,-1691.27,0
300,-300,-1926.75,0
300,-300,-2146.27,0
300,-300,-2346.54,0
300,-300,-2525.57,0
300,-300,-2683.45,0
300,-300,-2821.74,0
300,-300,-2941.87,0
300,-300,-3045.48,0
300,-300,-3132.97,0
300,-300,-3203.97,0
300,-300,-3258.53,0
300,-300,-3292.95,0
300,-300,-3305.96,0
300,-300,-3296.05,0
300,-300,-3263.19,0
300,-300,-3209.18,0
300,-300,-3138.07,0
300,-300,-3055.94,0
300,-300,-2970.2,0
300,-300,-2888.81,0
300,-300,-2821.04,0
300,-300,-2772.02,0
300,-300,-2746.02,0
300,-300,-2744.78,0
300,-300,-2766.05,0
300,-300,-2805.15,0
300,-300,-2854.01,0
300,-300,-2902.76,0
300,-300,-2941.53,0
300,-300,-2960.19,0
300,-300,-2943.92,0
300,-300,-2892.52,0
300,-300,-2800.48,0
300,-300,-2669.32,0
300,-300,-2503.54,0
300,-300,-2310.41,0
300,-300,-2100.41,0
300,-300,-1884.88,0
300,-300,-1675.88,0
300,-300,-1484.77,0
300,-300,-1320.55,0
300,-300,-1188.59,0
300,-300,-1095.8,0
300,-300,-1037.23,0
300,-300,-1008.63,0
300,-300,-1002.82,0
300,-300,-1010.53,0
300,-300,-1022.08,0
300,-300,-1027.48,0
300,-300,-1018.68,0
300,-300,-989.45,0
300,-300,-935.95,0
300,-300,-857.4,0
300,-300,-756.74,0
300,-300,-639.05,0
300,-300,-510.48,0
300,-300,-377.89,0
300,-300,-248.06,0
300,-300,-126.87,0
300,-300,-19.13,0
300,-300,73.15,0
300,-300,148.16,0
300,-300,205.96,0
300,-300,246.64,0
300,-300,269.28,0
300,-300,273.35,0
300,-300,256.75,0
300,-300,217.32,0
300,-300,151.16,0
300,-300,54.51,0
300,-300,-73.82,0
300,-300,-234.05,0
300,-300,-426.16,0
300,-300,-644.6,0
300,-300,-883.73,0
300,-300,-1135.52,0
300,-300,-1391.41,0
300,-300,-1642.28,0
300,-300,-1880.16,0
300,-300,-2100.28,0
300,-300,-2298.27,0
300,-300,-2472.08,0
300,-300,-2623.28,0
300,-300,-2753.54,0
300,-300,-2865.68,0
300,-300,-2960.61,0
300,-300,-3040.62,0
300,-300,-3104.5,0
300,-300,-3151,0
300,-300,-3177.71,0
300,-300,-3182.6,0
300,-300,-3161.97,0
300,-300,-3117.23,0
300,-300,-3050.12,0
300,-300,-2964.85,0
300,-300,-2868.1,0
300,-300,-2769,0
300,-300,-2676.7,0
300,-300,-2600.47,0
300,-300,-2547.7,0
300,-300,-2524.17,0
300,-300,-2528.81,0
300,-300,-2559.98,0
300,-300,-2610.12,0
300,-300,-2668.8,0
300,-300,-2723.39,0
300,-300,-2761.76,0
300,-300,-2772.12,0
300,-300,-2739.61,0
300,-300,-2665.14,0
300,-300,-2546.37,0
300,-300,-2386.28,0
300,-300,-2194.67,0
300,-300,-1982.69,0
300,-300,-1764.64,0
300,-300,-1554.09,0
300,-300,-1363.75,0
300,-300,-1203.81,0
300,-300,-1080.82,0
300,-300,-995.68,0
300,-300,-944.25,0
300,-300,-926.1,0
300,-300,-925.68,0
300,-300,-933.03,0
300,-300,-937.67,0
300,-300,-930.16,0
300,-300,-903.73,0
300,-300,-854.42,0
300,-300,-782.23,0
300,-300,-688.33,0
300,-300,-577.97,0
300,-300,-457.82,0
300,-300,-334.66,0
300,-300,-215.92,0
300,-300,-107.82,0
300,-300,-14.6,0
300,-300,61.24,0
300,-300,118.08,0
300,-300,154.88,0
300,-300,172.62,0
300,-300,171.53,0
300,-300,150.95,0
300,-300,108.95,0
300,-300,44.35,0
300,-300,-45.91,0
300,-300,-163.4,0
300,-300,-309.68,0
300,-300,-484.8,0
300,-300,-687.48,0
300,-300,-913.44,0
300,-300,-1156.8,0
300,-300,-1410.47,0
300,-300,-1666.32,0
300,-300,-1916.17,0
300,-300,-2152.89,0
300,-300,-2371.02,0
300,-300,-2566.81,0
300,-300,-2738.95,0
300,-300,-2887.67,0
300,-300,-3015.23,0
300,-300,-3122.18,0
300,-300,-3211.97,0
300,-300,-3284.87,0
300,-300,-3340.83,0
300,-300,-3378.52,0
300,-300,-3395.61,0
300,-300,-3390.03,0
300,-300,-3360.07,0
300,-300,-3305.95,0
300,-300,-3229.93,0
300,-300,-3134.94,0
300,-300,-3029.03,0
300,-300,-2919.79,0
300,-300,-2815.97,0
300,-300,-2726.77,0
300,-300,-2658.62,0
300,-300,-2617.04,0
300,-300,-2603.49,0
300,-300,-2615.12,0
300,-300,-2645.33,0
300,-300,-2685.06,0
300,-300,-2722.71,0
300,-300,-2746.8,0
300,-300,-2745.53,0
300,-300,-2710.41,0
300,-300,-2635.57,0
300,-300,-2520.1,0
300,-300,-2364.34,0
300,-300,-2177.88,0
300,-300,-1969.96,0
300,-300,-1753.21,0
300,-300,-1540.02,0
300,-300,-1343.03,0
300,-300,-1172.35,0
300,-300,-1035.15,0
300,-300,-934.45,0
300,-300,-869.69,0
300,-300,-835.93,0
300,-300,-824.45,0
300,-300,-831.84,0
300,-300,-841.76,0
300,-300,-846.14,0
300,-300,-837.27,0
300,-300,-809.69,0
300,-300,-761.12,0
300,-300,-690.8,0
300,-300,-601.31,0
300,-300,-496.55,0
300,-300,-383.1,0
300,-300,-266.57,0
300,-300,-154.08,0
300,-300,-50.75,0
300,-300,38.39,0
300,-300,110.39,0
300,-300,163.28,0
300,-300,195.72,0
300,-300,206.65,0
300,-300,195.25,0
300,-300,160.54,0
300,-300,103.16,0
300,-300,19.58,0
300,-300,-89.66,0
300,-300,-226.2,0
300,-300,-388.8,0
300,-300,-576.37,0
300,-300,-785.07,0
300,-300,-1011.6,0
300,-300,-1249.46,0
300,-300,-1491.98,0
300,-300,-1730.93,0
300,-300,-1961.48,0
300,-300,-2177.04,0
300,-300,-2373.61,0
300,-300,-2548.18,0
300,-300,-2700.23,0
300,-300,-2829.62,0
300,-300,-2939.08,0
300,-300,-3028.41,0
300,-300,-3099.97,0
300,-300,-3153.79,0
300,-300,-3190.18,0
300,-300,-3207.98,0
300,-300,-3206.75,0
300,-300,-3185.29,0
300,-300,-3143.5,0
300,-300,-3082.97,0
300,-300,-3007.76,0
300,-300,-2922.09,0
300,-300,-2832.81,0
300,-300,-2747.76,0
300,-300,-2673.94,0
300,-300,-2618.28,0
300,-300,-2585.44,0
300,-300,-2577.93,0
300,-300,-2594.57,0
300,-300,-2630.75,0
300,-300,-2674.5,0
300,-300,-2718.97,0
300,-300,-2751.23,0
300,-300,-2760.65,0
300,-300,-2737.82,0
300,-300,-2676.66,0
300,-300,-2574.71,0
300,-300,-2434.26,0
300,-300,-2261.57,0
300,-300,-2066.32,0
300,-300,-1860.68,0
300,-300,-1658.57,0
300,-300,-1471.29,0
300,-300,-1309.96,0
300,-300,-1182.29,0
300,-300,-1090.32,0
300,-300,-1033.19,0
300,-300,-1005.27,0
300,-300,-998.88,0
300,-300,-1003.29,0
300,-300,-1008.24,0
300,-300,-1003.92,0
300,-300,-984.24,0
300,-300,-942.2,0
300,-300,-876.6,0
300,-300,-788.63,0
300,-300,-682.71,0
300,-300,-564.04,0
300,-300,-439.9,0
300,-300,-316.32,0
300,-300,-199.83,0
300,-300,-94.99,0
300,-300,-5.9,0
300,-300,65.51,0
300,-300,118.05,0
300,-300,150.7,0
300,-300,162.91,0
300,-300,153.88,0
300,-300,121.74,0
300,-300,64.06,0
300,-300,-19.85,0
300,-300,-131.84,0
300,-300,-273.06,0
300,-300,-441.82,0
300,-300,-635.91,0
300,-300,-850.98,0
300,-300,-1081.01,0
300,-300,-1318.94,0
300,-300,-1556.83,0
300,-300,-1788.74,0
300,-300,-2007.05,0
300,-300,-2207.08,0
300,-300,-2386.12,0
300,-300,-2542.79,0
300,-300,-2678.17,0
300,-300,-2792.7,0
300,-300,-2889.13,0
300,-300,-2967.77,0
300,-300,-3029.74,0
300,-300,-3074.7,0
300,-300,-3102.24,0
300,-300,-3109.23,0
300,-300,-3094.73,0
300,-300,-3058.26,0
300,-300,-3000.48,0
300,-300,-2923.19,0
300,-300,-2832.01,0
300,-300,-2733.16,0
300,-300,-2634.52,0
300,-300,-2544.94,0
300,-300,-2473.07,0
300,-300,-2422.54,0
300,-300,-2398.16,0
300,-300,-2398.45,0
300,-300,-2419.12,0
300,-300,-2452.01,0
300,-300,-2487.31,0
300,-300,-2513.49,0
300,-300,-2514.72,0
300,-300,-2487.44,0
300,-300,-2424.33,0
300,-300,-2322.82,0
300,-300,-2187.29,0
300,-300,-2024.48,0
300,-300,-1844.92,0
300,-300,-1661.09,0
300,-300,-1485.45,0
300,-300,-1328.62,0
300,-300,-1199.56,0
300,-300,-1101.19,0
300,-300,-1032.24,0
300,-300,-992.67,0
300,-300,-971.42,0
300,-300,-959.12,0
300,-300,-945.37,0
300,-300,-920.98,0
300,-300,-879.42,0
300,-300,-816.43,0
300,-300,-732,0
300,-300,-628.17,0
300,-300,-510.52,0
300,-300,-386.31,0
300,-300,-262.5,0
300,-300,-146.56,0
300,-300,-45.03,0
300,-300,38.18,0
300,-300,99.96,0
300,-300,139.83,0
300,-300,155.91,0
300,-300,150.13,0
300,-300,122.33,0
300,-300,72.38,0
300,-300,-0.25,0
300,-300,-96.96,0
300,-300,-219.01,0
300,-300,-367.19,0
300,-300,-541.62,0
300,-300,-740.22,0
300,-300,-960.54,0
300,-300,-1197.35,0
300,-300,-1444.03,0
300,-300,-1693.26,0
300,-300,-1937.72,0
300,-300,-2170.22,0
300,-300,-2385.16,0
300,-300,-2578.91,0
300,-300,-2749.07,0
300,-300,-2895.49,0
300,-300,-3019.41,0
300,-300,-3123.5,0
300,-300,-3207.83,0
300,-300,-3275.6,0
300,-300,-3326.96,0
300,-300,-3361.31,0
300,-300,-3376.7,0
300,-300,-3372.09,0
300,-300,-3345.21,0
300,-300,-3296.6,0
300,-300,-3227.17,0
300,-300,-3141.1,0
300,-300,-3042.57,0
300,-300,-2939.8,0
300,-300,-2841.53,0
300,-300,-2754.61,0
300,-300,-2685.6,0
300,-300,-2638.31,0
300,-300,-2613.5,0
300,-300,-2601.03,0
300,-300,-2599.87,0
300,-300,-2599.04,0
300,-300,-2588.45,0
300,-300,-2558.02,0
300,-300,-2501.08,0
300,-300,-2413.36,0
300,-300,-2294.62,0
300,-300,-2149.28,0
300,-300,-1985.65,0
300,-300,-1814.83,0
300,-300,-1646.73,0
300,-300,-1493.15,0
300,-300,-1361.61,0
300,-300,-1256.19,0
300,-300,-1178.03,0
300,-300,-1123.33,0
300,-300,-1085.15,0
300,-300,-1054.03,0
300,-300,-1020.5,0
300,-300,-976.11,0
300,-300,-912.71,0
300,-300,-832.09,0
300,-300,-729.43,0
300,-300,-608.93,0
300,-300,-477.75,0
300,-300,-343.33,0
300,-300,-213.68,0
300,-300,-95.28,0
300,-300,6.39,0
300,-300,88.27,0
300,-300,148.41,0
300,-300,188.16,0
300,-300,207.13,0
300,-300,206.45,0
300,-300,186.37,0
300,-300,146.32,0
300,-300,84.55,0
300,-300,-1.44,0
300,-300,-114.75,0
300,-300,-256.73,0
300,-300,-428.53,0
300,-300,-627.56,0
300,-300,-850.92,0
300,-300,-1092.38,0
300,-300,-1343.93,0
300,-300,-1597.02,0
300,-300,-1843.35,0
300,-300,-2074.85,0
300,-300,-2286.89,0
300,-300,-2474.97,0
300,-300,-2638.48,0
300,-300,-2776.82,0
300,-300,-2893.48,0
300,-300,-2990.5,0
300,-300,-3070.58,0
300,-300,-3134.48,0
300,-300,-3182.48,0
300,-300,-3212.94,0
300,-300,-3225.18,0
300,-300,-3215.26,0
300,-300,-3182.68,0
300,-300,-3126.48,0
300,-300,-3049.28,0
300,-300,-2955.59,0
300,-300,-2852.44,0
300,-300,-2748.03,0
300,-300,-2651.01,0
300,-300,-2569.4,0
300,-300,-2503.28,0
300,-300,-2459.1,0
300,-300,-2434.47,0
300,-300,-2425.02,0
300,-300,-2423.4,0
300,-300,-2421.59,0
300,-300,-2411.14,0
300,-300,-2384.56,0
300,-300,-2337.05,0
300,-300,-2267.64,0
300,-300,-2178.34,0
300,-300,-2074.16,0
300,-300,-1961.34,0
300,-300,-1847.5,0
300,-300,-1739.42,0
300,-300,-1641.71,0
300,-300,-1556.83,0
300,-300,-1483.25,0
300,-300,-1418.05,0
300,-300,-1355.5,0
300,-300,-1290.15,0
300,-300,-1213.58,0
300,-300,-1128.14,0
300,-300,-1025.7,0
300,-300,-907.95,0
300,-300,-778.49,0
300,-300,-643.64,0
300,-300,-509.9,0
300,-300,-384.72,0
300,-300,-274.24,0
300,-300,-182.53,0
300,-300,-113.04,0
300,-300,-65.01,0
300,-300,-39.42,0
300,-300,-34.54,0
300,-300,-48.97,0
300,-300,-81.82,0
300,-300,-133.37,0
300,-300,-204.36,0
300,-300,-298.01,0
300,-300,-415.12,0
300,-300,-557.81,0
300,-300,-725.72,0
300,-300,-917.49,0
300,-300,-1129.65,0
300,-300,-1356.18,0
300,-300,-1589.99,0
300,-300,-1822.68,0
300,-300,-2046.53,0
300,-300,-2255.84,0
300,-300,-2444.48,0
300,-300,-2609.41,0
300,-300,-2750.04,0
300,-300,-2866.88,0
300,-300,-2962.39,0
300,-300,-3038.32,0
300,-300,-3097.06,0
300,-300,-3139.45,0
300,-300,-3165.08,0
300,-300,-3174.93,0
300,-300,-3165.26,0
300,-300,-3135.59,0
300,-300,-3085.19,0
300,-300,-3014.93,0
300,-300,-2927.89,0
300,-300,-2828.7,0
300,-300,-2723.19,0
300,-300,-2618.4,0
300,-300,-2520.87,0
300,-300,-2429.73,0
300,-300,-2354.67,0
300,-300,-2293.99,0
300,-300,-2247.3,0
300,-300,-2211.25,0
300,-300,-2181.61,0
300,-300,-2153.04,0
300,-300,-2121.63,0
300,-300,-2083.75,0
300,-300,-2038.04,0
300,-300,-1984.89,0
300,-300,-1926.57,0
300,-300,-1863.38,0
300,-300,-1799.15,0
300,-300,-1735.05,0
300,-300,-1671.31,0
300,-300,-1606.21,0
300,-300,-1537.33,0
300,-300,-1460.83,0
300,-300,-1372.63,0
300,-300,-1268.86,0
300,-300,-1146.79,0
300,-300,-1010.93,0
300,-300,-859.77,0
300,-300,-697.58,0
300,-300,-531.65,0
300,-300,-368.85,0
300,-300,-217.63,0
300,-300,-84.17,0
300,-300,26.12,0
300,-300,110.2,0
300,-300,167.07,0
300,-300,198.3,0
300,-300,205.56,0
300,-300,190.84,0
300,-300,155.76,0
300,-300,102.53,0
300,-300,30.86,0
300,-300,-59.36,0
300,-300,-168.88,0
300,-300,-299.43,0
300,-300,-450.37,0
300,-300,-619.99,0
300,-300,-806.16,0
300,-300,-1003.96,0
300,-300,-1208.16,0
300,-300,-1411.7,0
300,-300,-1608.21,0
300,-300,-1792.14,0
300,-300,-1959.53,0
300,-300,-2109.01,0
300,-300,-2238.91,0
300,-300,-2351.1,0
300,-300,-2447.29,0
300,-300,-2529.83,0
300,-300,-2600.82,0
300,-300,-2660.62,0
300,-300,-2709.13,0
300,-300,-2744.76,0
300,-300,-2765.07,0
300,-300,-2768.44,0
300,-300,-2751,0
300,-300,-2712.86,0
300,-300,-2654.05,0
300,-300,-2576.49,0
300,-300,-2484.58,0
300,-300,-2383.69,0
300,-300,-2280.24,0
300,-300,-2180.73,0
300,-300,-2091.89,0
300,-300,-2016.17,0
300,-300,-1959.06,0
300,-300,-1921.53,0
300,-300,-1903.2,0
300,-300,-1901.24,0
300,-300,-1911.23,0
300,-300,-1928.52,0
300,-300,-1947.45,0
300,-300,-1962.1,0
300,-300,-1966.33,0
300,-300,-1956.63,0
300,-300,-1926.76,0
300,-300,-1875.67,0
300,-300,-1801.07,0
300,-300,-1702.68,0
300,-300,-1581.47,0
300,-300,-1439.92,0
300,-300,-1282.34,0
300,-300,-1113.81,0
300,-300,-940.39,0
300,-300,-766.65,0
300,-300,-604.8,0
300,-300,-454.74,0
300,-300,-321.67,0
300,-300,-209.48,0
300,-300,-120.65,0
300,-300,-55.74,0
300,-300,-14.63,0
300,-300,4.25,0
300,-300,0.49,0
300,-300,-23.02,0
300,-300,-66.18,0
300,-300,-129.01,0
300,-300,-213.11,0
300,-300,-319.31,0
300,-300,-448.45,0
300,-300,-600.73,0
300,-300,-774.85,0
300,-300,-968.44,0
300,-300,-1179.06,0
300,-300,-1399.61,0
300,-300,-1625.73,0
300,-300,-1849.71,0
300,-300,-2066.08,0
300,-300,-2269.27,0
300,-300,-2455.86,0
300,-300,-2623.14,0
300,-300,-2770.41,0
300,-300,-2897.85,0
300,-300,-3006.21,0
300,-300,-3096.75,0
300,-300,-3169.5,0
300,-300,-3224.73,0
300,-300,-3261.38,0
300,-300,-3278.91,0
300,-300,-3275.5,0
300,-300,-3250.58,0
300,-300,-3204.88,0
300,-300,-3140.4,0
300,-300,-3057.02,0
300,-300,-2961.46,0
300,-300,-2856.37,0
300,-300,-2747.7,0
300,-300,-2640.16,0
300,-300,-2537.76,0
300,-300,-2443.28,0
300,-300,-2357.73,0
300,-300,-2281.87,0
300,-300,-2212.96,0
300,-300,-2151.39,0
300,-300,-2094.45,0
300,-300,-2039.32,0
300,-300,-1985.57,0
300,-300,-1931.7,0
300,-300,-1876.58,0
300,-300,-1819.78,0
300,-300,-1759.93,0
300,-300,-1696.05,0
300,-300,-1626.84,0
300,-300,-1549.36,0
300,-300,-1461.73,0
300,-300,-1361.14,0
300,-300,-1246.26,0
300,-300,-1116.42,0
300,-300,-972.31,0
300,-300,-816.51,0
300,-300,-652.78,0
300,-300,-485.86,0
300,-300,-322.6,0
300,-300,-168.63,0
300,-300,-29.11,0
300,-300,88.7,0
300,-300,184.73,0
300,-300,256.3,0
300,-300,302.54,0
300,-300,323.93,0
300,-300,321.13,0
300,-300,294.79,0
300,-300,244.49,0
300,-300,170.67,0
300,-300,71.22,0
300,-300,-54.26,0
300,-300,-207.03,0
300,-300,-387.43,0
300,-300,-593.81,0
300,-300,-823.37,0
300,-300,-1071.17,0
300,-300,-1330.88,0
300,-300,-1595.47,0
300,-300,-1857.16,0
300,-300,-2108.53,0
300,-300,-2343.74,0
300,-300,-2558.55,0
300,-300,-2750.11,0
300,-300,-2917.57,0
300,-300,-3061.53,0
300,-300,-3182.77,0
300,-300,-3283.14,0
300,-300,-3362.51,0
300,-300,-3422.04,0
300,-300,-3458.82,0
300,-300,-3473.1,0
300,-300,-3463.07,0
300,-300,-3428.12,0
300,-300,-3368.45,0
300,-300,-3286.63,0
300,-300,-3186.93,0
300,-300,-3076.55,0
300,-300,-2962.18,0
300,-300,-2851.89,0
300,-300,-2750.8,0
300,-300,-2665.53,0
300,-300,-2597.79,0
300,-300,-2546.98,0
300,-300,-2509.01,0
300,-300,-2477.87,0
300,-300,-2446.5,0
300,-300,-2404.85,0
300,-300,-2349.52,0
300,-300,-2275.43,0
300,-300,-2181.94,0
300,-300,-2070.32,0
300,-300,-1946.02,0
300,-300,-1815.83,0
300,-300,-1687.28,0
300,-300,-1566.76,0
300,-300,-1460.1,0
300,-300,-1369.42,0
300,-300,-1293.75,0
300,-300,-1228.73,0
300,-300,-1171.76,0
300,-300,-1113.12,0
300,-300,-1045.96,0
300,-300,-965.16,0
300,-300,-866.68,0
300,-300,-750.01,0
300,-300,-617.5,0
300,-300,-474.15,0
300,-300,-326.5,0
300,-300,-183.74,0
300,-300,-51.35,0
300,-300,63.85,0
300,-300,157.18,0
300,-300,226.12,0
300,-300,270.42,0
300,-300,290.78,0
300,-300,288.88,0
300,-300,265.19,0
300,-300,220.74,0
300,-300,155.54,0
300,-300,68.23,0
300,-300,-43.24,0
300,-300,-180.6,0
300,-300,-344.98,0
300,-300,-535.83,0
300,-300,-751.18,0
300,-300,-987.2,0
300,-300,-1237.53,0
300,-300,-1494.86,0
300,-300,-1750.9,0
300,-300,-1998.76,0
300,-300,-2231.14,0
300,-300,-2443.61,0
300,-300,-2632.92,0
300,-300,-2798.1,0
300,-300,-2939.64,0
300,-300,-3060.11,0
300,-300,-3160.56,0
300,-300,-3242.54,0
300,-300,-3305.97,0
300,-300,-3351.34,0
300,-300,-3376.59,0
300,-300,-3379.98,0
300,-300,-3359.86,0
300,-300,-3315.45,0
300,-300,-3247.96,0
300,-300,-3161.79,0
300,-300,-3061.56,0
300,-300,-2955.36,0
300,-300,-2851.04,0
300,-300,-2757.21,0
300,-300,-2680.18,0
300,-300,-2623.99,0
300,-300,-2589.43,0
300,-300,-2573.44,0
300,-300,-2569.6,0
300,-300,-2562.92,0
300,-300,-2549.55,0
300,-300,-2517.8,0
300,-300,-2460.56,0
300,-300,-2373.21,0
300,-300,-2256.1,0
300,-300,-2113.74,0
300,-300,-1953.8,0
300,-300,-1786.64,0
300,-300,-1623.37,0
300,-300,-1474.28,0
300,-300,-1347.36,0
300,-300,-1245.09,0
300,-300,-1168.46,0
300,-300,-1112.51,0
300,-300,-1069.82,0
300,-300,-1030.68,0
300,-300,-985.12,0
300,-300,-924.42,0
300,-300,-842.75,0
300,-300,-738.28,0
300,-300,-611.98,0
300,-300,-470.78,0
300,-300,-320.34,0
300,-300,-169.63,0
300,-300,-27.84,0
300,-300,96.85,0
300,-300,199.58,0
300,-300,277.67,0
300,-300,329.62,0
300,-300,357.05,0
300,-300,361.97,0
300,-300,346.54,0
300,-300,310.92,0
300,-300,255.46,0
300,-300,178.58,0
300,-300,77.37,0
300,-300,-51.29,0
300,-300,-209.64,0
300,-300,-399.97,0
300,-300,-619.51,0
300,-300,-865.25,0
300,-300,-1130.93,0
300,-300,-1408.19,0
300,-300,-1687.87,0
300,-300,-1960.26,0
300,-300,-2217.18,0
300,-300,-2451.64,0
300,-300,-2659.58,0
300,-300,-2840.19,0
300,-300,-2992.86,0
300,-300,-3120.23,0
300,-300,-3224.51,0
300,-300,-3308.3,0
300,-300,-3373.32,0
300,-300,-3419.71,0
300,-300,-3445.73,0
300,-300,-3449.09,0
300,-300,-3427.04,0
300,-300,-3378.73,0
300,-300,-3304.09,0
300,-300,-3205,0
300,-300,-3087.09,0
300,-300,-2958.98,0
300,-300,-2830.02,0
300,-300,-2710.62,0
300,-300,-2610.23,0
300,-300,-2535.95,0
300,-300,-2491.04,0
300,-300,-2466.08,0
300,-300,-2462.94,0
300,-300,-2468.52,0
300,-300,-2471.79,0
300,-300,-2461.17,0
300,-300,-2425.85,0
300,-300,-2358.49,0
300,-300,-2256.74,0
300,-300,-2123.26,0
300,-300,-1965.09,0
300,-300,-1793.11,0
300,-300,-1620.2,0
300,-300,-1457.49,0
300,-300,-1316.13,0
300,-300,-1202.06,0
300,-300,-1116.78,0
300,-300,-1056.49,0
300,-300,-1013.74,0
300,-300,-977.09,0
300,-300,-934.09,0
300,-300,-865.61,0
300,-300,-765.25,0
300,-300,-630,0
300,-300,-452.58,0
300,-300,-236.48,0
300,-300,9.29,0
300,-300,272.96,0
300,-300,541.04,0
300,-300,799.49,0
300,-300,1035.9,0
300,-300,1247.25,0
300,-300,1422.58,0
300,-300,1561.73,0
300,-300,1665.57,0
300,-300,1736.58,0
300,-300,1779.28,0
300,-300,1797.04,0
300,-300,1793.2,0
300,-300,1769.98,0
300,-300,1728.08,0
300,-300,1670.92,0
300,-300,1597.49,0
300,-300,1509.78,0
300,-300,1410.62,0
300,-300,1303.61,0
300,-300,1194.73,0
300,-300,1090.71,0
300,-300,999.43,0
300,-300,928.51,0
300,-300,883.09,0
300,-300,873.36,0
300,-300,894.21,0
300,-300,945.74,0
300,-300,1022.52,0
300,-300,1116.37,0
300,-300,1218.43,0
300,-300,1318.53,0
300,-300,1407.86,0
300,-300,1479.37,0
300,-300,1528.51,0
300,-300,1563.35,0
300,-300,1577.81,0
300,-300,1577.36,0
300,-300,1566.09,0
300,-300,1548.02,0
300,-300,1524.73,0
300,-300,1494.48,0
300,-300,1452.88,0
300,-300,1391.88,0
300,-300,1307.53,0
300,-300,1188.2,0
300,-300,1029.75,0
300,-300,828.7,0
300,-300,587.89,0
300,-300,314.36,0
300,-300,19.82,0
300,-300,-280.26,0
300,-300,-569.14,0
300,-300,-829.94,0
300,-300,-1051.95,0
300,-300,-1221.94,0
300,-300,-1336.85,0
300,-300,-1398.18,0
300,-300,-1414.04,0
300,-300,-1395.83,0
300,-300,-1357.32,0
300,-300,-1313.26,0
300,-300,-1277.33,0
300,-300,-1260.01,0
300,-300,-1270.62,0
300,-300,-1307.67,0
300,-300,-1378.91,0
300,-300,-1473.88,0
300,-300,-1588.66,0
300,-300,-1720.14,0
300,-300,-1865.88,0
300,-300,-2026.39,0
300,-300,-2203.51,0
300,-300,-2401.38,0
300,-300,-2627.37,0
300,-300,-2884.02,0
300,-300,-3175.22,0
300,-300,-3501.68,0
300,-300,-3860.49,0
300,-300,-4245.57,0
300,-300,-4647.55,0
300,-300,-5054.63,0
300,-300,-5454.44,0
300,-300,-5836.06,0
300,-300,-6191.72,0
300,-300,-6512.26,0
300,-300,-6801.2,0
300,-300,-7053.48,0
300,-300,-7272.93,0
300,-300,-7463.94,0
300,-300,-7630.84,0
300,-300,-7776.77,0
300,-300,-7902.74,0
300,-300,-8008.25,0
300,-300,-8092.3,0
300,-300,-8145.7,0
300,-300,-8169.07,0
300,-300,-8152.03,0
300,-300,-8091.32,0
300,-300,-7985.46,0
300,-300,-7835.75,0
300,-300,-7645.77,0
300,-300,-7421.19,0
300,-300,-7171.74,0
300,-300,-6903.76,0
300,-300,-6624.63,0
300,-300,-6344.08,0
300,-300,-6065.83,0
300,-300,-5793.49,0
300,-300,-5528.98,0
300,-300,-5273.48,0
300,-300,-5027.25,0
300,-300,-4790.32,0
300,-300,-4564.15,0
300,-300,-4348.3,0
300,-300,-4141.26,0
300,-300,-3950.37,0
300,-300,-3768.51,0
300,-300,-3595.69,0
300,-300,-3430.27,0
300,-300,-3267.84,0
300,-300,-3102.97,0
300,-300,-2929.22,0
300,-300,-2732.77,0
300,-300,-2514.4,0
300,-300,-2265.96,0
300,-300,-1996.24,0
300,-300,-1699.72,0
300,-300,-1385.86,0
300,-300,-1065.47,0
300,-300,-753.21,0
300,-300,-463.02,0
300,-300,-207.8,0
300,-300,-0.1,0
300,-300,157.74,0
300,-300,260.34,0
300,-300,315.27,0
300,-300,331.8,0
300,-300,322.64,0
300,-300,302.97,0
300,-300,288.72,0
300,-300,293.99,0
300,-300,330.14,0
300,-300,404.9,0
300,-300,517.26,0
300,-300,667.57,0
300,-300,843.68,0
300,-300,1035.26,0
300,-300,1229.4,0
300,-300,1413.2,0
300,-300,1575.09,0
300,-300,1705.2,0
300,-300,1797.99,0
300,-300,1850.03,0
300,-300,1861.41,0
300,-300,1836.62,0
300,-300,1777.38,0
300,-300,1688.3,0
300,-300,1574.1,0
300,-300,1438.22,0
300,-300,1283.6,0
300,-300,1112.02,0
300,-300,927.98,0
300,-300,731.26,0
300,-300,523.69,0
300,-300,311.35,0
300,-300,96.22,0
300,-300,-116.57,0
300,-300,-321.7,0
300,-300,-514.77,0
300,-300,-691.5,0
300,-300,-849.72,0
300,-300,-988.46,0
300,-300,-1107.87,0
300,-300,-1209.71,0
300,-300,-1294.55,0
300,-300,-1364.89,0
300,-300,-1422.03,0
300,-300,-1465.16,0
300,-300,-1491.9,0
300,-300,-1499.4,0
300,-300,-1484.27,0
300,-300,-1443.56,0
300,-300,-1377.3,0
300,-300,-1287.42,0
300,-300,-1176.4,0
300,-300,-1054.37,0
300,-300,-932.32,0
300,-300,-823,0
300,-300,-739.32,0
300,-300,-693.47,0
300,-300,-694.98,0
300,-300,-746.95,0
300,-300,-850.66,0
300,-300,-997.56,0
300,-300,-1178.13,0
300,-300,-1377.96,0
300,-300,-1580.38,0
300,-300,-1769.1,0
300,-300,-1929.81,0
300,-300,-2052.58,0
300,-300,-2131.66,0
300,-300,-2165.85,0
300,-300,-2161.3,0
300,-300,-2124.17,0
300,-300,-2067,0
300,-300,-2001.3,0
300,-300,-1937.05,0
300,-300,-1883.16,0
300,-300,-1844.92,0
300,-300,-1823.82,0
300,-300,-1819.08,0
300,-300,-1826.6,0
300,-300,-1838.15,0
300,-300,-1854.69,0
300,-300,-1863.86,0
300,-300,-1862.14,0
300,-300,-1848.44,0
300,-300,-1823.79,0
300,-300,-1789.95,0
300,-300,-1750.65,0
300,-300,-1711.25,0
300,-300,-1674.51,0
300,-300,-1646.19,0
300,-300,-1627.91,0
300,-300,-1623.97,0
300,-300,-1636.91,0
300,-300,-1667.65,0
300,-300,-1717.01,0
300,-300,-1784.17,0
300,-300,-1868.96,0
300,-300,-1972.61,0
300,-300,-2090.99,0
300,-300,-2222.84,0
300,-300,-2366.14,0
300,-300,-2515.23,0
300,-300,-2665.16,0
300,-300,-2810.19,0
300,-300,-2944.42,0
300,-300,-3062.65,0
300,-300,-3159.46,0
300,-300,-3233.78,0
300,-300,-3281.71,0
300,-300,-3305.02,0
300,-300,-3304.54,0
300,-300,-3285.11,0
300,-300,-3250.87,0
300,-300,-3207.01,0
300,-300,-3158.59,0
300,-300,-3109.12,0
300,-300,-3061.36,0
300,-300,-3016.49,0
300,-300,-2973.11,0
300,-300,-2931.41,0
300,-300,-2887.08,0
300,-300,-2837.19,0
300,-300,-2779.49,0
300,-300,-2713.16,0
300,-300,-2637.81,0
300,-300,-2555.38,0
300,-300,-2468.8,0
300,-300,-2381.77,0
300,-300,-2298.95,0
300,-300,-2224.1,0
300,-300,-2161.25,0
300,-300,-2111.8,0
300,-300,-2075.67,0
300,-300,-2050.72,0
300,-300,-2032.4,0
300,-300,-2015.02,0
300,-300,-1984.78,0
300,-300,-1940.73,0
300,-300,-1874.19,0
300,-300,-1781.4,0
300,-300,-1660.13,0
300,-300,-1511.95,0
300,-300,-1341.78,0
300,-300,-1157.18,0
300,-300,-968.25,0
300,-300,-785.47,0
300,-300,-620.99,0
300,-300,-482.04,0
300,-300,-375.12,0
300,-300,-304.81,0
300,-300,-269.08,0
300,-300,-263.29,0
300,-300,-280.8,0
300,-300,-311.99,0
300,-300,-347.02,0
300,-300,-376.64,0
300,-300,-394.4,0
300,-300,-394.1,0
300,-300,-373.77,0
300,-300,-335.88,0
300,-300,-281.42,0
300,-300,-216.91,0
300,-300,-147.18,0
300,-300,-78.54,0
300,-300,-16.2,0
300,-300,36.02,0
300,-300,73.74,0
300,-300,96.72,0
300,-300,104.23,0
300,-300,96.04,0
300,-300,71.48,0
300,-300,30.78,0
300,-300,-27,0
300,-300,-103,0
300,-300,-197.93,0
300,-300,-312.33,0
300,-300,-446.33,0
300,-300,-599.82,0
300,-300,-768.22,0
300,-300,-949.26,0
300,-300,-1137.3,0
300,-300,-1325.81,0
300,-300,-1509.58,0
300,-300,-1683.35,0
300,-300,-1843.47,0
300,-300,-1987.83,0
300,-300,-2116.52,0
300,-300,-2231.72,0
300,-300,-2332.99,0
300,-300,-2425.56,0
300,-300,-2510.48,0
300,-300,-2587.95,0
300,-300,-2657.56,0
300,-300,-2717.63,0
300,-300,-2764.65,0
300,-300,-2795.29,0
300,-300,-2805.57,0
300,-300,-2794.59,0
300,-300,-2760.72,0
300,-300,-2707.71,0
300,-300,-2640.25,0
300,-300,-2565.17,0
300,-300,-2489.59,0
300,-300,-2422.43,0
300,-300,-2370.57,0
300,-300,-2340.05,0
300,-300,-2336.4,0
300,-300,-2357.34,0
300,-300,-2399.34,0
300,-300,-2454.16,0
300,-300,-2512.18,0
300,-300,-2561.3,0
300,-300,-2589.85,0
300,-300,-2587.78,0
300,-300,-2546.83,0
300,-300,-2463.87,0
300,-300,-2337.97,0
300,-300,-2175.14,0
300,-300,-1983.85,0
300,-300,-1775.14,0
300,-300,-1562.59,0
300,-300,-1359.34,0
300,-300,-1177,0
300,-300,-1024.77,0
300,-300,-908.91,0
300,-300,-831.28,0
300,-300,-787.49,0
300,-300,-777.78,0
300,-300,-786.53,0
300,-300,-804.6,0
300,-300,-821.35,0
300,-300,-826.98,0
300,-300,-814.82,0
300,-300,-779.85,0
300,-300,-721.11,0
300,-300,-640.45,0
300,-300,-541.33,0
300,-300,-429.45,0
300,-300,-313.45,0
300,-300,-200.55,0
300,-300,-97.87,0
300,-300,-10.85,0
300,-300,56.55,0
300,-300,102.08,0
300,-300,125.34,0
300,-300,125.21,0
300,-300,103.13,0
300,-300,60.76,0
300,-300,-2.69,0
300,-300,-86.88,0
300,-300,-190.57,0
300,-300,-314.45,0
300,-300,-456.65,0
300,-300,-616.34,0
300,-300,-790.36,0
300,-300,-976.46,0
300,-300,-1168.85,0
300,-300,-1361.52,0
300,-300,-1550.34,0
300,-300,-1730.38,0
300,-300,-1897.71,0
300,-300,-2049.85,0
300,-300,-2186.59,0
300,-300,-2308.28,0
300,-300,-2416.44,0
300,-300,-2513.72,0
300,-300,-2601.56,0
300,-300,-2681.53,0
300,-300,-2752.92,0
300,-300,-2814.53,0
300,-300,-2864.61,0
300,-300,-2899.85,0
300,-300,-2917.83,0
300,-300,-2915.56,0
300,-300,-2892.62,0
300,-300,-2850.27,0
300,-300,-2792.28,0
300,-300,-2724.15,0
300,-300,-2652.6,0
300,-300,-2585.89,0
300,-300,-2531.03,0
300,-300,-2494.5,0
300,-300,-2479.86,0
300,-300,-2487.02,0
300,-300,-2512.6,0
300,-300,-2543.05,0
300,-300,-2574.58,0
300,-300,-2595.05,0
300,-300,-2593.88,0
300,-300,-2561.64,0
300,-300,-2492.25,0
300,-300,-2384.09,0
300,-300,-2238.7,0
300,-300,-2063.01,0
300,-300,-1866.28,0
300,-300,-1661.58,0
300,-300,-1462.24,0
300,-300,-1278.38,0
300,-300,-1121.9,0
300,-300,-999.97,0
300,-300,-914.65,0
300,-300,-863.25,0
300,-300,-839.75,0
300,-300,-835.05,0
300,-300,-837.64,0
300,-300,-837.59,0
300,-300,-824.83,0
300,-300,-793.79,0
300,-300,-739.4,0
300,-300,-662.27,0
300,-300,-565.96,0
300,-300,-457.2,0
300,-300,-343.45,0
300,-300,-233.83,0
300,-300,-136.19,0
300,-300,-56.71,0
300,-300,-0.47,0
300,-300,30.46,0
300,-300,35.44,0
300,-300,15.83,0
300,-300,-25.25,0
300,-300,-84.97,0
300,-300,-161.36,0
300,-300,-252.62,0
300,-300,-359.76,0
300,-300,-480.87,0
300,-300,-617.15,0
300,-300,-769.83,0
300,-300,-936.72,0
300,-300,-1116.43,0
300,-300,-1305.43,0
300,-300,-1498.6,0
300,-300,-1689.85,0
300,-300,-1873.53,0
300,-300,-2045,0
300,-300,-2199.17,0
300,-300,-2332.84,0
300,-300,-2446.15,0
300,-300,-2540.2,0
300,-300,-2617.01,0
300,-300,-2679.16,0
300,-300,-2729.64,0
300,-300,-2770.22,0
300,-300,-2801.95,0
300,-300,-2822.49,0
300,-300,-2831.56,0
300,-300,-2824.23,0
300,-300,-2799.57,0
300,-300,-2755.49,0
300,-300,-2692.41,0
300,-300,-2612.93,0
300,-300,-2522.54,0
300,-300,-2428.82,0
300,-300,-2342.52,0
300,-300,-2272.2,0
300,-300,-2225.92,0
300,-300,-2207.53,0
300,-300,-2217.75,0
300,-300,-2252.35,0
300,-300,-2302.62,0
300,-300,-2357.48,0
300,-300,-2403.08,0
300,-300,-2425.66,0
300,-300,-2412.38,0
300,-300,-2358.01,0
300,-300,-2259.28,0
300,-300,-2118.94,0
300,-300,-1944.79,0
300,-300,-1749.04,0
300,-300,-1546.62,0
300,-300,-1352.41,0
300,-300,-1179.5,0
300,-300,-1037.62,0
300,-300,-932.75,0
300,-300,-863.18,0
300,-300,-822.69,0
300,-300,-808.77,0
300,-300,-804.01,0
300,-300,-797.53,0
300,-300,-779.12,0
300,-300,-741.66,0
300,-300,-681.97,0
300,-300,-599.69,0
300,-300,-498.53,0
300,-300,-385.08,0
300,-300,-267.04,0
300,-300,-152.08,0
300,-300,-47.84,0
300,-300,39.81,0
300,-300,106.21,0
300,-300,150.49,0
300,-300,171.99,0
300,-300,171.3,0
300,-300,149.06,0
300,-300,105.96,0
300,-300,42.5,0
300,-300,-41.54,0
300,-300,-147.09,0
300,-300,-275.25,0
300,-300,-426.21,0
300,-300,-598.51,0
300,-300,-790.22,0
300,-300,-996.39,0
300,-300,-1211.64,0
300,-300,-1428.19,0
300,-300,-1638.67,0
300,-300,-1836.81,0
300,-300,-2016.71,0
300,-300,-2174.92,0
300,-300,-2309.66,0
300,-300,-2421.34,0
300,-300,-2512.4,0
300,-300,-2585.99,0
300,-300,-2646.22,0
300,-300,-2695.17,0
300,-300,-2733.3,0
300,-300,-2762.88,0
300,-300,-2781.65,0
300,-300,-2786.86,0
300,-300,-2776.3,0
300,-300,-2747.76,0
300,-300,-2700.51,0
300,-300,-2636.36,0
300,-300,-2560.22,0
300,-300,-2477.63,0
300,-300,-2395.47,0
300,-300,-2324.43,0
300,-300,-2272.39,0
300,-300,-2245.97,0
300,-300,-2248.33,0
300,-300,-2279.03,0
300,-300,-2333.14,0
300,-300,-2402.43,0
300,-300,-2469.27,0
300,-300,-2525.62,0
300,-300,-2558.1,0
300,-300,-2554.32,0
300,-300,-2507.74,0
300,-300,-2415.34,0
300,-300,-2280.55,0
300,-300,-2110.72,0
300,-300,-1917.93,0
300,-300,-1716.03,0
300,-300,-1522.25,0
300,-300,-1346.33,0
300,-300,-1199.82,0
300,-300,-1088.22,0
300,-300,-1012.42,0
300,-300,-968.06,0
300,-300,-946.78,0
300,-300,-938.2,0
300,-300,-931.37,0
300,-300,-915.76,0
300,-300,-885.93,0
300,-300,-838.66,0
300,-300,-772.01,0
300,-300,-690.07,0
300,-300,-599.51,0
300,-300,-508.19,0
300,-300,-424.62,0
300,-300,-356.02,0
300,-300,-307.76,0
300,-300,-291.63,0
300,-300,-304.1,0
300,-300,-346.83,0
300,-300,-419.96,0
300,-300,-521.66,0
300,-300,-648.79,0
300,-300,-799.16,0
300,-300,-970.13,0
300,-300,-1159.5,0
300,-300,-1365.11,0
300,-300,-1589.09,0
300,-300,-1824.46,0
300,-300,-2070.47,0
300,-300,-2323.26,0
300,-300,-2578.76,0
300,-300,-2832.79,0
300,-300,-3081.17,0
300,-300,-3320.44,0
300,-300,-3548.02,0
300,-300,-3763.24,0
300,-300,-3967.1,0
300,-300,-4159.15,0
300,-300,-4340.9,0
300,-300,-4513.06,0
300,-300,-4676.37,0
300,-300,-4829.68,0
300,-300,-4969.57,0
300,-300,-5091.74,0
300,-300,-5190.05,0
300,-300,-5259.13,0
300,-300,-5296.15,0
300,-300,-5295.17,0
300,-300,-5255.14,0
300,-300,-5177.51,0
300,-300,-5066.17,0
300,-300,-4926.69,0
300,-300,-4766.01,0
300,-300,-4592.36,0
300,-300,-4412.75,0
300,-300,-4232.91,0
300,-300,-4052.01,0
300,-300,-3869.84,0
300,-300,-3680.53,0
300,-300,-3478.2,0
300,-300,-3254.92,0
300,-300,-3002.98,0
300,-300,-2717.59,0
300,-300,-2396.71,0
300,-300,-2042.37,0
300,-300,-1661.3,0
300,-300,-1264.84,0
300,-300,-867.35,0
300,-300,-484.2,0
300,-300,-132.27,0
300,-300,174.32,0
300,-300,425.2,0
300,-300,613.77,0
300,-300,739.04,0
300,-300,804.47,0
300,-300,817.66,0
300,-300,789.79,0
300,-300,735.62,0
300,-300,663.37,0
300,-300,590.79,0
300,-300,527.46,0
300,-300,480.23,0
300,-300,453.14,0
300,-300,447.14,0
300,-300,462.43,0
300,-300,496.26,0
300,-300,545.72,0
300,-300,606.27,0
300,-300,675.69,0
300,-300,748.6,0
300,-300,821.33,0
300,-300,889.94,0
300,-300,950.35,0
300,-300,998.66,0
300,-300,1030.02,0
300,-300,1039.05,0
300,-300,1023.79,0
300,-300,979,0
300,-300,904.59,0
300,-300,799.32,0
300,-300,664.08,0
300,-300,502.64,0
300,-300,320.09,0
300,-300,122.34,0
300,-300,-84.34,0
300,-300,-295.69,0
300,-300,-507.82,0
300,-300,-710.28,0
300,-300,-906.45,0
300,-300,-1093.9,0
300,-300,-1272.46,0
300,-300,-1440.02,0
300,-300,-1595.87,0
300,-300,-1738.09,0
300,-300,-1863.97,0
300,-300,-1969.68,0
300,-300,-2053.81,0
300,-300,-2107.52,0
300,-300,-2132.78,0
300,-300,-2127.37,0
300,-300,-2091.82,0
300,-300,-2030.31,0
300,-300,-1949.98,0
300,-300,-1859.96,0
300,-300,-1772.88,0
300,-300,-1700.18,0
300,-300,-1653.06,0
300,-300,-1639.16,0
300,-300,-1663.84,0
300,-300,-1726.23,0
300,-300,-1820.33,0
300,-300,-1935.87,0
300,-300,-2058.62,0
300,-300,-2173.63,0
300,-300,-2258.77,0
300,-300,-2307.29,0
300,-300,-2308.36,0
300,-300,-2255.26,0
300,-300,-2152.55,0
300,-300,-2007.73,0
300,-300,-1832.87,0
300,-300,-1643.43,0
300,-300,-1455.09,0
300,-300,-1283.38,0
300,-300,-1139.76,0
300,-300,-1030.78,0
300,-300,-957.37,0
300,-300,-918.24,0
300,-300,-903.94,0
300,-300,-903.42,0
300,-300,-904.06,0
300,-300,-894.05,0
300,-300,-864.41,0
300,-300,-809.08,0
300,-300,-727.49,0
300,-300,-622.18,0
300,-300,-499.45,0
300,-300,-367.69,0
300,-300,-235.98,0
300,-300,-113.4,0
300,-300,-7.25,0
300,-300,77.17,0
300,-300,137.55,0
300,-300,173.65,0
300,-300,185.2,0
300,-300,174.54,0
300,-300,144.29,0
300,-300,94.72,0
300,-300,26.68,0
300,-300,-61.06,0
300,-300,-169.47,0
300,-300,-300.08,0
300,-300,-453.14,0
300,-300,-629.08,0
300,-300,-824.99,0
300,-300,-1038.4,0
300,-300,-1262.94,0
300,-300,-1492.66,0
300,-300,-1720.32,0
300,-300,-1939.68,0
300,-300,-2145.73,0
300,-300,-2335.41,0
300,-300,-2506.84,0
300,-300,-2661.53,0
300,-300,-2800.89,0
300,-300,-2927.77,0
300,-300,-3043.06,0
300,-300,-3149.43,0
300,-300,-3245.54,0
300,-300,-3329.27,0
300,-300,-3396.21,0
300,-300,-3441.72,0
300,-300,-3460.87,0
300,-300,-3451.34,0
300,-300,-3410.81,0
300,-300,-3342.45,0
300,-300,-3249.2,0
300,-300,-3140.56,0
300,-300,-3026.74,0
300,-300,-2918.78,0
300,-300,-2827.26,0
300,-300,-2760.54,0
300,-300,-2724.48,0
300,-300,-2718.28,0
300,-300,-2737.39,0
300,-300,-2773.15,0
300,-300,-2813.96,0
300,-300,-2844.76,0
300,-300,-2852.54,0
300,-300,-2825.49,0
300,-300,-2756.04,0
300,-300,-2641.65,0
300,-300,-2484.86,0
300,-300,-2294.79,0
300,-300,-2084.15,0
300,-300,-1867.18,0
300,-300,-1660.05,0
300,-300,-1476.87,0
300,-300,-1328.12,0
300,-300,-1220.25,0
300,-300,-1153.78,0
300,-300,-1123.89,0
300,-300,-1121.64,0
300,-300,-1135.63,0
300,-300,-1151.65,0
300,-300,-1163.19,0
300,-300,-1154.43,0
300,-300,-1120.11,0
300,-300,-1059.01,0
300,-300,-973.17,0
300,-300,-867.9,0
300,-300,-750.41,0
300,-300,-628.58,0
300,-300,-511.75,0
300,-300,-406.14,0
300,-300,-316.79,0
300,-300,-247.55,0
300,-300,-199.47,0
300,-300,-171.75,0
300,-300,-163.49,0
300,-300,-173.62,0
300,-300,-201.34,0
300,-300,-249.03,0
300,-300,-315.86,0
300,-300,-404.33,0
300,-300,-515.66,0
300,-300,-650.57,0
300,-300,-808.86,0
300,-300,-987.82,0
300,-300,-1183.04,0
300,-300,-1388.36,0
300,-300,-1596.36,0
300,-300,-1801.01,0
300,-300,-1993.01,0
300,-300,-2167.65,0
300,-300,-2320.33,0
300,-300,-2449.36,0
300,-300,-2556.43,0
300,-300,-2643.21,0
300,-300,-2713.18,0
300,-300,-2769.81,0
300,-300,-2816,0
300,-300,-2853.91,0
300,-300,-2882.82,0
300,-300,-2900.75,0
300,-300,-2905.91,0
300,-300,-2894.16,0
300,-300,-2863.96,0
300,-300,-2814.31,0
300,-300,-2746.63,0
300,-300,-2664.39,0
300,-300,-2574.04,0
300,-300,-2484.73,0
300,-300,-2404.51,0
300,-300,-2339.72,0
300,-300,-2296.71,0
300,-300,-2277.15,0
300,-300,-2279.04,0
300,-300,-2296.51,0
300,-300,-2320.54,0
300,-300,-2339.82,0
300,-300,-2343.53,0
300,-300,-2317.52,0
300,-300,-2259.99,0
300,-300,-2165.01,0
300,-300,-2035.47,0
300,-300,-1877.05,0
300,-300,-1699.96,0
300,-300,-1516.12,0
300,-300,-1338.4,0
300,-300,-1177.91,0
300,-300,-1041.91,0
300,-300,-935.65,0
300,-300,-858.37,0
300,-300,-806.86,0
300,-300,-774.13,0
300,-300,-750.55,0
300,-300,-726.39,0
300,-300,-692.88,0
300,-300,-644.02,0
300,-300,-576.46,0
300,-300,-490.01,0
300,-300,-387.17,0
300,-300,-274.16,0
300,-300,-156.05,0
300,-300,-39.37,0
300,-300,70.1,0
300,-300,168.25,0
300,-300,252.5,0
300,-300,321.67,0
300,-300,375.71,0
300,-300,412.66,0
300,-300,434.55,0
300,-300,439.29,0
300,-300,425.49,0
300,-300,390.99,0
300,-300,333.19,0
300,-300,249.03,0
300,-300,137.2,0
300,-300,-2.53,0
300,-300,-168.06,0
300,-300,-356.54,0
300,-300,-562.75,0
300,-300,-780.75,0
300,-300,-1002.86,0
300,-300,-1223.21,0
300,-300,-1436.43,0
300,-300,-1638.6,0
300,-300,-1827.13,0
300,-300,-2001.65,0
300,-300,-2162.28,0
300,-300,-2309.09,0
300,-300,-2444.84,0
300,-300,-2566.75,0
300,-300,-2676.15,0
300,-300,-2770.73,0
300,-300,-2847.37,0
300,-300,-2902.89,0
300,-300,-2933.88,0
300,-300,-2938.79,0
300,-300,-2917.88,0
300,-300,-2872.78,0
300,-300,-2808.53,0
300,-300,-2728.79,0
300,-300,-2641.77,0
300,-300,-2554.12,0
300,-300,-2470.72,0
300,-300,-2396.13,0
300,-300,-2331.71,0
300,-300,-2277.2,0
300,-300,-2230.68,0
300,-300,-2186.31,0
300,-300,-2142.13,0
300,-300,-2091.64,0
300,-300,-2032.43,0
300,-300,-1963.19,0
300,-300,-1882.99,0
300,-300,-1793.9,0
300,-300,-1699.19,0
300,-300,-1601.84,0
300,-300,-1505.32,0
300,-300,-1413.11,0
300,-300,-1326.25,0
300,-300,-1243.73,0
300,-300,-1165.22,0
300,-300,-1089.36,0
300,-300,-1013.09,0
300,-300,-934.74,0
300,-300,-852.9,0
300,-300,-767.57,0
300,-300,-680.08,0
300,-300,-593.05,0
300,-300,-507.85,0
300,-300,-432.85,0
300,-300,-365.88,0
300,-300,-311.12,0
300,-300,-269.77,0
300,-300,-242.93,0
300,-300,-229.82,0
300,-300,-230.28,0
300,-300,-243.71,0
300,-300,-272.17,0
300,-300,-317.38,0
300,-300,-381.51,0
300,-300,-468.45,0
300,-300,-581.53,0
300,-300,-723.96,0
300,-300,-896.58,0
300,-300,-1098.36,0
300,-300,-1325.72,0
300,-300,-1572.55,0
300,-300,-1831.71,0
300,-300,-2094.13,0
300,-300,-2350.61,0
300,-300,-2592.26,0
300,-300,-2812.75,0
300,-300,-3007.46,0
300,-300,-3174.22,0
300,-300,-3313.12,0
300,-300,-3425.8,0
300,-300,-3514.44,0
300,-300,-3582.07,0
300,-300,-3628.2,0
300,-300,-3655.97,0
300,-300,-3664.32,0
300,-300,-3652.04,0
300,-300,-3617.35,0
300,-300,-3559.79,0
300,-300,-3478.73,0
300,-300,-3376.55,0
300,-300,-3257.92,0
300,-300,-3128.84,0
300,-300,-2996.29,0
300,-300,-2868.51,0
300,-300,-2752.66,0
300,-300,-2653.98,0
300,-300,-2575.25,0
300,-300,-2515.7,0
300,-300,-2472.06,0
300,-300,-2437.97,0
300,-300,-2402.64,0
300,-300,-2361.57,0
300,-300,-2307.25,0
300,-300,-2233.69,0
300,-300,-2139.81,0
300,-300,-2027.32,0
300,-300,-1900.62,0
300,-300,-1766.43,0
300,-300,-1632.34,0
300,-300,-1505.73,0
300,-300,-1392.34,0
300,-300,-1294.08,0
300,-300,-1211.26,0
300,-300,-1140.45,0
300,-300,-1075.87,0
300,-300,-1011.14,0
300,-300,-938.97,0
300,-300,-853.7,0
300,-300,-752,0
300,-300,-633.7,0
300,-300,-501.8,0
300,-300,-361.05,0
300,-300,-220.79,0
300,-300,-86.97,0
300,-300,32.23,0
300,-300,130.67,0
300,-300,205.1,0
300,-300,254.14,0
300,-300,278.65,0
300,-300,281.9,0
300,-300,266.53,0
300,-300,234.56,0
300,-300,188.81,0
300,-300,128.91,0
300,-300,53.67,0
300,-300,-39.76,0
300,-300,-153.87,0
300,-300,-291.86,0
300,-300,-454.39,0
300,-300,-642.26,0
300,-300,-851.87,0
300,-300,-1078.64,0
300,-300,-1315.02,0
300,-300,-1554.31,0
300,-300,-1787.65,0
300,-300,-2008.58,0
300,-300,-2211.3,0
300,-300,-2392.9,0
300,-300,-2551.61,0
300,-300,-2689.72,0
300,-300,-2807.85,0
300,-300,-2909.27,0
300,-300,-2994.91,0
300,-300,-3066.8,0
300,-300,-3124.7,0
300,-300,-3166.57,0
300,-300,-3189.81,0
300,-300,-3191.29,0
300,-300,-3168.73,0
300,-300,-3122.44,0
300,-300,-3052.79,0
300,-300,-2964.83,0
300,-300,-2864.39,0
300,-300,-2760.17,0
300,-300,-2661.7,0
300,-300,-2578.3,0
300,-300,-2517.29,0
300,-300,-2483.23,0
300,-300,-2477.28,0
300,-300,-2490.44,0
300,-300,-2519.2,0
300,-300,-2551.73,0
300,-300,-2576.04,0
300,-300,-2580.87,0
300,-300,-2556.13,0
300,-300,-2495.52,0
300,-300,-2397.01,0
300,-300,-2263.23,0
300,-300,-2101.17,0
300,-300,-1922.27,0
300,-300,-1738.5,0
300,-300,-1561.33,0
300,-300,-1401.91,0
300,-300,-1268.15,0
300,-300,-1163.28,0
300,-300,-1086.79,0
300,-300,-1033.93,0
300,-300,-996.84,0
300,-300,-966.47,0
300,-300,-933.33,0
300,-300,-888.58,0
300,-300,-829.72,0
300,-300,-750.8,0
300,-300,-653.58,0
300,-300,-542.47,0
300,-300,-423.81,0
300,-300,-304.68,0
300,-300,-192.48,0
300,-300,-93.06,0
300,-300,-10.47,0
300,-300,52.36,0
300,-300,95.48,0
300,-300,119.04,0
300,-300,124.48,0
300,-300,113.28,0
300,-300,86.19,0
300,-300,42.69,0
300,-300,-18.64,0
300,-300,-102.75,0
300,-300,-209.9,0
300,-300,-343.56,0
300,-300,-504.35,0
300,-300,-691.58,0
300,-300,-902.06,0
300,-300,-1130.43,0
300,-300,-1369.63,0
300,-300,-1611.42,0
300,-300,-1847.32,0
300,-300,-2071.97,0
300,-300,-2276.81,0
300,-300,-2459.55,0
300,-300,-2618.63,0
300,-300,-2754,0
300,-300,-2868.42,0
300,-300,-2964.74,0
300,-300,-3045.86,0
300,-300,-3113.35,0
300,-300,-3167.66,0
300,-300,-3208.2,0
300,-300,-3233.05,0
300,-300,-3238.35,0
300,-300,-3222.6,0
300,-300,-3184.18,0
300,-300,-3124.13,0
300,-300,-3045.11,0
300,-300,-2952.65,0
300,-300,-2854.1,0
300,-300,-2758.28,0
300,-300,-2675.25,0
300,-300,-2613.07,0
300,-300,-2576.08,0
300,-300,-2568.55,0
300,-300,-2588.67,0
300,-300,-2630.99,0
300,-300,-2686.31,0
300,-300,-2743.23,0
300,-300,-2789.01,0
300,-300,-2811.69,0
300,-300,-2793.94,0
300,-300,-2735.54,0
300,-300,-2630.15,0
300,-300,-2480.92,0
300,-300,-2294.14,0
300,-300,-2080.49,0
300,-300,-1853.58,0
300,-300,-1627.65,0
300,-300,-1416.77,0
300,-300,-1232.63,0
300,-300,-1083.77,0
300,-300,-972.25,0
300,-300,-902.63,0
300,-300,-865.58,0
300,-300,-853.55,0
300,-300,-856.25,0
300,-300,-862.72,0
300,-300,-863.27,0
300,-300,-849.86,0
300,-300,-817.11,0
300,-300,-764.67,0
300,-300,-691.74,0
300,-300,-602.26,0
300,-300,-502.15,0
300,-300,-397.81,0
300,-300,-295.54,0
300,-300,-200.37,0
300,-300,-116.38,0
300,-300,-45.67,0
300,-300,10.89,0
300,-300,51.83,0
300,-300,78.95,0
300,-300,91.84,0
300,-300,89.66,0
300,-300,70.63,0
300,-300,32.16,0
300,-300,-29.01,0
300,-300,-115.61,0
300,-300,-230,0
300,-300,-373,0
300,-300,-543.73,0
300,-300,-738.59,0
300,-300,-952.49,0
300,-300,-1178.07,0
300,-300,-1407.38,0
300,-300,-1632.67,0
300,-300,-1846.93,0
300,-300,-2044.32,0
300,-300,-2221.68,0
300,-300,-2377.77,0
300,-300,-2513.63,0
300,-300,-2629.36,0
300,-300,-2729.25,0
300,-300,-2814.26,0
300,-300,-2885.43,0
300,-300,-2941.88,0
300,-300,-2981.53,0
300,-300,-3001.43,0
300,-300,-2998.24,0
300,-300,-2969.92,0
300,-300,-2916.24,0
300,-300,-2836.4,0
300,-300,-2736.49,0
300,-300,-2622.82,0
300,-300,-2503.32,0
300,-300,-2387.91,0
300,-300,-2285.49,0
300,-300,-2203.97,0
300,-300,-2147.94,0
300,-300,-2113.06,0
300,-300,-2099.78,0
300,-300,-2099.83,0
300,-300,-2103.28,0
300,-300,-2100.05,0
300,-300,-2079.85,0
300,-300,-2035.06,0
300,-300,-1961.55,0
300,-300,-1859.22,0
300,-300,-1732.72,0
300,-300,-1590.64,0
300,-300,-1442.72,0
300,-300,-1299.12,0
300,-300,-1170.16,0
300,-300,-1063.79,0
300,-300,-983.35,0
300,-300,-928.69,0
300,-300,-895.83,0
300,-300,-878.11,0
300,-300,-866.97,0
300,-300,-855.31,0
300,-300,-831.42,0
300,-300,-797.07,0
300,-300,-743.61,0
300,-300,-672.63,0
300,-300,-588.58,0
300,-300,-496.78,0
300,-300,-404.44,0
300,-300,-316.97,0
300,-300,-240.2,0
300,-300,-176.8,0
300,-300,-129.26,0
300,-300,-97.14,0
300,-300,-79.85,0
300,-300,-76.22,0
300,-300,-85.8,0
300,-300,-108.56,0
300,-300,-145.8,0
300,-300,-199.88,0
300,-300,-273.98,0
300,-300,-370.9,0
300,-300,-494.04,0
300,-300,-641.56,0
300,-300,-814.54,0
300,-300,-1008.81,0
300,-300,-1218.77,0
300,-300,-1437.68,0
300,-300,-1657.76,0
300,-300,-1871.57,0
300,-300,-2073.64,0
300,-300,-2258.76,0
300,-300,-2425.15,0
300,-300,-2570.68,0
300,-300,-2697.69,0
300,-300,-2808.03,0
300,-300,-2903.39,0
300,-300,-2985.28,0
300,-300,-3053.78,0
300,-300,-3107.81,0
300,-300,-3146.18,0
300,-300,-3164.31,0
300,-300,-3160.4,0
300,-300,-3131.45,0
300,-300,-3077.33,0
300,-300,-2999.88,0
300,-300,-2903.31,0
300,-300,-2793.91,0
300,-300,-2680.6,0
300,-300,-2572.13,0
300,-300,-2479.11,0
300,-300,-2406.96,0
300,-300,-2360.02,0
300,-300,-2339.5,0
300,-300,-2340.62,0
300,-300,-2356.62,0
300,-300,-2377.87,0
300,-300,-2393.11,0
300,-300,-2391.28,0
300,-300,-2363.24,0
300,-300,-2301.29,0
300,-300,-2206.22,0
300,-300,-2079.44,0
300,-300,-1927.64,0
300,-300,-1760.72,0
300,-300,-1590.31,0
300,-300,-1428.11,0
300,-300,-1284.36,0
300,-300,-1166.22,0
300,-300,-1076.98,0
300,-300,-1016.15,0
300,-300,-978.57,0
300,-300,-961.92,0
300,-300,-953.02,0
300,-300,-943.09,0
300,-300,-924.02,0
300,-300,-890.01,0
300,-300,-838.29,0
300,-300,-768.59,0
300,-300,-683.68,0
300,-300,-587.49,0
300,-300,-486.79,0
300,-300,-386.6,0
300,-300,-292.99,0
300,-300,-210.3,0
300,-300,-141.13,0
300,-300,-86.7,0
300,-300,-47.34,0
300,-300,-22.8,0
300,-300,-14.39,0
300,-300,-21.73,0
300,-300,-47.16,0
300,-300,-91.2,0
300,-300,-158.98,0
300,-300,-253.31,0
300,-300,-375.5,0
300,-300,-527.04,0
300,-300,-706.19,0
300,-300,-910.83,0
300,-300,-1136.39,0
300,-300,-1375.04,0
300,-300,-1619.27,0
300,-300,-1861.59,0
300,-300,-2093.98,0
300,-300,-2310.33,0
300,-300,-2506.61,0
300,-300,-2680.67,0
300,-300,-2831.72,0
300,-300,-2961.2,0
300,-300,-3072.13,0
300,-300,-3165.38,0
300,-300,-3242.78,0
300,-300,-3304.93,0
300,-300,-3350.33,0
300,-300,-3377.98,0
300,-300,-3385,0
300,-300,-3369.51,0
300,-300,-3329.78,0
300,-300,-3266.65,0
300,-300,-3183.8,0
300,-300,-3086.1,0
300,-300,-2980.2,0
300,-300,-2875.16,0
300,-300,-2779.61,0
300,-300,-2701.35,0
300,-300,-2645.5,0
300,-300,-2614.07,0
300,-300,-2605.45,0
300,-300,-2614.31,0
300,-300,-2625.34,0
300,-300,-2634.9,0
300,-300,-2628.77,0
300,-300,-2599.04,0
300,-300,-2538.14,0
300,-300,-2443.97,0
300,-300,-2318.35,0
300,-300,-2167.42,0
300,-300,-2000.78,0
300,-300,-1830.62,0
300,-300,-1668.27,0
300,-300,-1525.17,0
300,-300,-1406.46,0
300,-300,-1317.82,0
300,-300,-1257.92,0
300,-300,-1221.34,0
300,-300,-1200.11,0
300,-300,-1184.4,0
300,-300,-1164.12,0
300,-300,-1132.5,0
300,-300,-1082.32,0
300,-300,-1011.32,0
300,-300,-922.62,0
300,-300,-817.85,0
300,-300,-704.19,0
300,-300,-589.13,0
300,-300,-479.77,0
300,-300,-381.89,0
300,-300,-299.06,0
300,-300,-234.08,0
300,-300,-185.59,0
300,-300,-152.93,0
300,-300,-134.43,0
300,-300,-128.3,0
300,-300,-134.21,0
300,-300,-154.05,0
300,-300,-189.91,0
300,-300,-246.02,0
300,-300,-326.32,0
300,-300,-435.64,0
300,-300,-573.94,0
300,-300,-741.92,0
300,-300,-937.23,0
300,-300,-1153.69,0
300,-300,-1383.97,0
300,-300,-1619.68,0
300,-300,-1851.75,0
300,-300,-2072.04,0
300,-300,-2274.31,0
300,-300,-2455.34,0
300,-300,-2613.12,0
300,-300,-2747.26,0
300,-300,-2861.17,0
300,-300,-2956.63,0
300,-300,-3036.72,0
300,-300,-3102,0
300,-300,-3152.18,0
300,-300,-3185.82,0
300,-300,-3199.73,0
300,-300,-3191.45,0
300,-300,-3158.8,0
300,-300,-3099.15,0
300,-300,-3015.26,0
300,-300,-2911.32,0
300,-300,-2793.65,0
300,-300,-2671.04,0
300,-300,-2552.8,0
300,-300,-2448.17,0
300,-300,-2358.84,0
300,-300,-2292.55,0
300,-300,-2248.13,0
300,-300,-2220.68,0
300,-300,-2204.9,0
300,-300,-2192.1,0
300,-300,-2173.39,0
300,-300,-2140.81,0
300,-300,-2089.05,0
300,-300,-2015.95,0
300,-300,-1923.32,0
300,-300,-1815.5,0
300,-300,-1699.23,0
300,-300,-1581.65,0
300,-300,-1470.83,0
300,-300,-1371.96,0
300,-300,-1287.78,0
300,-300,-1218.18,0
300,-300,-1159.32,0
300,-300,-1106.26,0
300,-300,-1052.97,0
300,-300,-991.8,0
300,-300,-915.88,0
300,-300,-828.81,0
300,-300,-723.68,0
300,-300,-603.63,0
300,-300,-474.1,0
300,-300,-342.1,0
300,-300,-214.34,0
300,-300,-97.07,0
300,-300,4.15,0
300,-300,87.48,0
300,-300,151.37,0
300,-300,196.94,0
300,-300,225.68,0
300,-300,238.73,0
300,-300,237.74,0
300,-300,223,0
300,-300,193.3,0
300,-300,146.87,0
300,-300,80.82,0
300,-300,-7.97,0
300,-300,-119.23,0
300,-300,-254.76,0
300,-300,-412.87,0
300,-300,-589.84,0
300,-300,-780.29,0
300,-300,-977.88,0
300,-300,-1175.77,0
300,-300,-1368.06,0
300,-300,-1549.59,0
300,-300,-1718.48,0
300,-300,-1871.46,0
300,-300,-2009.86,0
300,-300,-2134.54,0
300,-300,-2247.19,0
300,-300,-2348.87,0
300,-300,-2440.11,0
300,-300,-2520.22,0
300,-300,-2587.88,0
300,-300,-2640.59,0
300,-300,-2676.03,0
300,-300,-2689.91,0
300,-300,-2684.08,0
300,-300,-2657.9,0
300,-300,-2613.97,0
300,-300,-2556.17,0
300,-300,-2489.69,0
300,-300,-2420.26,0
300,-300,-2347.16,0
300,-300,-2279.93,0
300,-300,-2220.53,0
300,-300,-2168.59,0
300,-300,-2125.12,0
300,-300,-2088.75,0
300,-300,-2056.83,0
300,-300,-2027.66,0
300,-300,-1999.42,0
300,-300,-1970.55,0
300,-300,-1941.12,0
300,-300,-1910.25,0
300,-300,-1878.56,0
300,-300,-1845.52,0
300,-300,-1810.38,0
300,-300,-1771.44,0
300,-300,-1726.99,0
300,-300,-1673.17,0
300,-300,-1607.33,0
300,-300,-1526.32,0
300,-300,-1431.2,0
300,-300,-1318.53,0
300,-300,-1195.89,0
300,-300,-1063.02,0
300,-300,-925.44,0
300,-300,-788.85,0
300,-300,-659.63,0
300,-300,-542.46,0
300,-300,-441.29,0
300,-300,-358,0
300,-300,-293.48,0
300,-300,-246.91,0
300,-300,-216.3,0
300,-300,-200.56,0
300,-300,-199.18,0
300,-300,-212.11,0
300,-300,-241.07,0
300,-300,-288.65,0
300,-300,-358.38,0
300,-300,-453.03,0
300,-300,-574.91,0
300,-300,-725.26,0
300,-300,-901.21,0
300,-300,-1099.99,0
300,-300,-1315.48,0
300,-300,-1540.11,0
300,-300,-1765.84,0
300,-300,-1985.34,0
300,-300,-2192.13,0
300,-300,-2382.11,0
300,-300,-2553.23,0
300,-300,-2704.38,0
300,-300,-2836.24,0
300,-300,-2951.54,0
300,-300,-3050.68,0
300,-300,-3135.21,0
300,-300,-3204.09,0
300,-300,-3255.34,0
300,-300,-3286.48,0
300,-300,-3295.25,0
300,-300,-3278.51,0
300,-300,-3235.8,0
300,-300,-3168.16,0
300,-300,-3079.23,0
300,-300,-2975.17,0
300,-300,-2864.03,0
300,-300,-2754.29,0
300,-300,-2653.8,0
300,-300,-2569.48,0
300,-300,-2498.59,0
300,-300,-2446.08,0
300,-300,-2406.97,0
300,-300,-2376.2,0
300,-300,-2345.37,0
300,-300,-2307.87,0
300,-300,-2257.31,0
300,-300,-2190.12,0
300,-300,-2104.96,0
300,-300,-2004.46,0
300,-300,-1894.12,0
300,-300,-1779.92,0
300,-300,-1669.25,0
300,-300,-1568.27,0
300,-300,-1481.37,0
300,-300,-1410.23,0
300,-300,-1352.31,0
300,-300,-1303.6,0
300,-300,-1257.53,0
300,-300,-1207.09,0
300,-300,-1147.3,0
300,-300,-1070.59,0
300,-300,-980.92,0
300,-300,-874.19,0
300,-300,-754.18,0
300,-300,-627.68,0
300,-300,-501.99,0
300,-300,-384.43,0
300,-300,-280.96,0
300,-300,-195.65,0
300,-300,-129.77,0
300,-300,-84.45,0
300,-300,-56.15,0
300,-300,-43.92,0
300,-300,-44.63,0
300,-300,-57.35,0
300,-300,-82.58,0
300,-300,-122.38,0
300,-300,-179.81,0
300,-300,-260.25,0
300,-300,-366.29,0
300,-300,-501.56,0
300,-300,-664.53,0
300,-300,-855.48,0
300,-300,-1069.5,0
300,-300,-1299.7,0
300,-300,-1537.79,0
300,-300,-1775.9,0
300,-300,-2005.56,0
300,-300,-2222.57,0
300,-300,-2420.5,0
300,-300,-2598.88,0
300,-300,-2756.75,0
300,-300,-2896.19,0
300,-300,-3018.69,0
300,-300,-3126.16,0
300,-300,-3218.92,0
300,-300,-3296.56,0
300,-300,-3356.39,0
300,-300,-3396.98,0
300,-300,-3413.44,0
300,-300,-3403.92,0
300,-300,-3367.43,0
300,-300,-3304.5,0
300,-300,-3218.95,0
300,-300,-3117.54,0
300,-300,-3007.72,0
300,-300,-2899.1,0
300,-300,-2800.5,0
300,-300,-2721.41,0
300,-300,-2665.42,0
300,-300,-2634.45,0
300,-300,-2625.38,0
300,-300,-2632.47,0
300,-300,-2646.07,0
300,-300,-2654.26,0
300,-300,-2645.63,0
300,-300,-2609.61,0
300,-300,-2538.22,0
300,-300,-2423.84,0
300,-300,-2272.95,0
300,-300,-2088.24,0
300,-300,-1880.41,0
300,-300,-1661.63,0
300,-300,-1445.93,0
300,-300,-1246.44,0
300,-300,-1073.86,0
300,-300,-935.71,0
300,-300,-834.41,0
300,-300,-767.08,0
300,-300,-727.18,0
300,-300,-710.38,0
300,-300,-700.56,0
300,-300,-686.59,0
300,-300,-658.22,0
300,-300,-608.38,0
300,-300,-532.9,0
300,-300,-431.63,0
300,-300,-306.58,0
300,-300,-164.22,0
300,-300,-11.25,0
300,-300,144.63,0
300,-300,295.15,0
300,-300,434.19,0
300,-300,557.24,0
300,-300,661.35,0
300,-300,745.56,0
300,-300,808.83,0
300,-300,850.91,0
300,-300,871.62,0
300,-300,868.99,0
300,-300,841.84,0
300,-300,786.26,0
300,-300,698.24,0
300,-300,575.08,0
300,-300,414.52,0
300,-300,216.39,0
300,-300,-17.5,0
300,-300,-283.01,0
300,-300,-572.62,0
300,-300,-878.11,0
300,-300,-1189.67,0
300,-300,-1496.33,0
300,-300,-1790.63,0
300,-300,-2064.62,0
300,-300,-2313.87,0
300,-300,-2535.05,0
300,-300,-2727.76,0
300,-300,-2892.75,0
300,-300,-3031.55,0
300,-300,-3144.44,0
300,-300,-3233.39,0
300,-300,-3297.33,0
300,-300,-3334.99,0
300,-300,-3343.95,0
300,-300,-3322.46,0
300,-300,-3269.2,0
300,-300,-3185.62,0
300,-300,-3073.44,0
300,-300,-2941.08,0
300,-300,-2794.56,0
300,-300,-2646.41,0
300,-300,-2506.87,0
300,-300,-2386.23,0
300,-300,-2291.79,0
300,-300,-2228.06,0
300,-300,-2195.36,0
300,-300,-2189.36,0
300,-300,-2194.09,0
300,-300,-2207.99,0
300,-300,-2214.21,0
300,-300,-2203.56,0
300,-300,-2167.01,0
300,-300,-2100.14,0
300,-300,-2002.12,0
300,-300,-1877.31,0
300,-300,-1732.45,0
300,-300,-1575.9,0
300,-300,-1419.1,0
300,-300,-1270.94,0
300,-300,-1136.58,0
300,-300,-1021.29,0
300,-300,-924.55,0
300,-300,-844.07,0
300,-300,-773.5,0
300,-300,-706.43,0
300,-300,-636.72,0
300,-300,-558.54,0
300,-300,-469.45,0
300,-300,-368.38,0
300,-300,-262.62,0
300,-300,-151.35,0
300,-300,-41.67,0
300,-300,59.2,0
300,-300,145.9,0
300,-300,214.5,0
300,-300,262.73,0
300,-300,289.39,0
300,-300,296.43,0
300,-300,285,0
300,-300,255.66,0
300,-300,210.75,0
300,-300,150.15,0
300,-300,72.2,0
300,-300,-25.02,0
300,-300,-143.89,0
300,-300,-286.27,0
300,-300,-453.71,0
300,-300,-644.02,0
300,-300,-855.89,0
300,-300,-1083.8,0
300,-300,-1322.34,0
300,-300,-1564.36,0
300,-300,-1803,0
300,-300,-2031.66,0
300,-300,-2245,0
300,-300,-2439.31,0
300,-300,-2612.67,0
300,-300,-2765.27,0
300,-300,-2897.22,0
300,-300,-3010.3,0
300,-300,-3105.98,0
300,-300,-3184.73,0
300,-300,-3246.71,0
300,-300,-3290.4,0
300,-300,-3315.03,0
300,-300,-3318.47,0
300,-300,-3298.83,0
300,-300,-3258.21,0
300,-300,-3196.71,0
300,-300,-3118.77,0
300,-300,-3029.26,0
300,-300,-2933.84,0
300,-300,-2838.81,0
300,-300,-2749.18,0
300,-300,-2669.45,0
300,-300,-2594.27,0
300,-300,-2530.91,0
300,-300,-2474.47,0
300,-300,-2421.48,0
300,-300,-2368.7,0
300,-300,-2312.62,0
300,-300,-2250.22,0
300,-300,-2181.42,0
300,-300,-2106.75,0
300,-300,-2029.15,0
300,-300,-1953.36,0
300,-300,-1881.83,0
300,-300,-1817.67,0
300,-300,-1763.38,0
300,-300,-1716.87,0
300,-300,-1676.29,0
300,-300,-1637.73,0
300,-300,-1595.76,0
300,-300,-1545.88,0
300,-300,-1484.08,0
300,-300,-1411.7,0
300,-300,-1325.58,0
300,-300,-1227.68,0
300,-300,-1130.79,0
300,-300,-1032.98,0
300,-300,-943.08,0
300,-300,-868.17,0
300,-300,-814.11,0
300,-300,-783.91,0
300,-300,-778.97,0
300,-300,-800.62,0
300,-300,-843.76,0
300,-300,-907.97,0
300,-300,-989.16,0
300,-300,-1085.97,0
300,-300,-1198.14,0
300,-300,-1326.13,0
300,-300,-1471.81,0
300,-300,-1636.26,0
300,-300,-1820.92,0
300,-300,-2025.64,0
300,-300,-2247.71,0
300,-300,-2482.6,0
300,-300,-2724.07,0
300,-300,-2964.36,0
300,-300,-3195.26,0
300,-300,-3409.27,0
300,-300,-3600.3,0
300,-300,-3763.38,0
300,-300,-3897.07,0
300,-300,-4001.87,0
300,-300,-4079.25,0
300,-300,-4131.09,0
300,-300,-4161.25,0
300,-300,-4171.15,0
300,-300,-4162.12,0
300,-300,-4133.66,0
300,-300,-4084.26,0
300,-300,-4011.49,0
300,-300,-3914.92,0
300,-300,-3793.01,0
300,-300,-3647.65,0
300,-300,-3481.44,0
300,-300,-3301.75,0
300,-300,-3116,0
300,-300,-2933.49,0
300,-300,-2762.57,0
300,-300,-2610.79,0
300,-300,-2482.72,0
300,-300,-2373.55,0
300,-300,-2285.97,0
300,-300,-2212.72,0
300,-300,-2146.27,0
300,-300,-2077.89,0
300,-300,-2000.02,0
300,-300,-1907.78,0
300,-300,-1798.06,0
300,-300,-1672.12,0
300,-300,-1533.97,0
300,-300,-1390.56,0
300,-300,-1248.15,0
300,-300,-1114.31,0
300,-300,-995.9,0
300,-300,-894.33,0
300,-300,-810.24,0
300,-300,-741.03,0
300,-300,-680.78,0
300,-300,-623.62,0
300,-300,-562.21,0
300,-300,-491.74,0
300,-300,-405.5,0
300,-300,-309.89,0
300,-300,-200.02,0
300,-300,-81.06,0
300,-300,40.28,0
300,-300,157.52,0
300,-300,264.76,0
300,-300,357.6,0
300,-300,434.35,0
300,-300,495.75,0
300,-300,541.86,0
300,-300,577.21,0
300,-300,602.4,0
300,-300,618.81,0
300,-300,626.57,0
300,-300,623.55,0
300,-300,606.15,0
300,-300,570.43,0
300,-300,512.17,0
300,-300,428.25,0
300,-300,315.03,0
300,-300,177.22,0
300,-300,14.77,0
300,-300,-166.29,0
300,-300,-358.05,0
300,-300,-552.22,0
300,-300,-740.88,0
300,-300,-918.18,0
300,-300,-1078.21,0
300,-300,-1219.87,0
300,-300,-1343.23,0
300,-300,-1447.49,0
300,-300,-1537.58,0
300,-300,-1615.78,0
300,-300,-1683.8,0
300,-300,-1742.42,0
300,-300,-1791.07,0
300,-300,-1828.55,0
300,-300,-1853.77,0
300,-300,-1863.56,0
300,-300,-1856.65,0
300,-300,-1832.4,0
300,-300,-1791.88,0
300,-300,-1738.65,0
300,-300,-1676.9,0
300,-300,-1612.56,0
300,-300,-1552.27,0
300,-300,-1501.52,0
300,-300,-1465.15,0
300,-300,-1448.43,0
300,-300,-1452.97,0
300,-300,-1478.25,0
300,-300,-1522.31,0
300,-300,-1581.95,0
300,-300,-1651.97,0
300,-300,-1727.33,0
300,-300,-1801.7,0
300,-300,-1869.79,0
300,-300,-1926.56,0
300,-300,-1968.52,0
300,-300,-1992.06,0
300,-300,-1996.75,0
300,-300,-1981.27,0
300,-300,-1946.96,0
300,-300,-1894.69,0
300,-300,-1827.01,0
300,-300,-1746.55,0
300,-300,-1657.29,0
300,-300,-1562.22,0
300,-300,-1464.47,0
300,-300,-1372.49,0
300,-300,-1284.23,0
300,-300,-1202.3,0
300,-300,-1129.3,0
300,-300,-1066.34,0
300,-300,-1014.82,0
300,-300,-974.85,0
300,-300,-947.55,0
300,-300,-933.47,0
300,-300,-934.35,0
300,-300,-950.31,0
300,-300,-984.61,0
300,-300,-1038.05,0
300,-300,-1112.11,0
300,-300,-1206.89,0
300,-300,-1321.5,0
300,-300,-1453.49,0
300,-300,-1600.21,0
300,-300,-1755.88,0
300,-300,-1915.61,0
300,-300,-2073.43,0
300,-300,-2225,0
300,-300,-2366.32,0
300,-300,-2494.5,0
300,-300,-2608.61,0
300,-300,-2709.29,0
300,-300,-2797.61,0
300,-300,-2876.51,0
300,-300,-2946.32,0
300,-300,-3007.9,0
300,-300,-3061.82,0
300,-300,-3105.06,0
300,-300,-3135.42,0
300,-300,-3150.2,0
300,-300,-3146.32,0
300,-300,-3122.16,0
300,-300,-3077.65,0
300,-300,-3015.71,0
300,-300,-2938.07,0
300,-300,-2850.72,0
300,-300,-2759.09,0
300,-300,-2667.56,0
300,-300,-2581.11,0
300,-300,-2502.62,0
300,-300,-2432.43,0
300,-300,-2369.29,0
300,-300,-2310.44,0
300,-300,-2250.13,0
300,-300,-2186.66,0
300,-300,-2116.9,0
300,-300,-2038.27,0
300,-300,-1951.66,0
300,-300,-1858.83,0
300,-300,-1763.42,0
300,-300,-1669.74,0
300,-300,-1581.6,0
300,-300,-1502.11,0
300,-300,-1431.92,0
300,-300,-1371.32,0
300,-300,-1315.89,0
300,-300,-1262.09,0
300,-300,-1204.85,0
300,-300,-1138.3,0
300,-300,-1058.42,0
300,-300,-962.82,0
300,-300,-851.15,0
300,-300,-726.14,0
300,-300,-591.26,0
300,-300,-453.73,0
300,-300,-320.27,0
300,-300,-196.36,0
300,-300,-87.17,0
300,-300,3.14,0
300,-300,72.45,0
300,-300,120.71,0
300,-300,148.59,0
300,-300,156.84,0
300,-300,147.09,0
300,-300,119.23,0
300,-300,72.82,0
300,-300,5.99,0
300,-300,-83.14,0
300,-300,-196.82,0
300,-300,-337.19,0
300,-300,-504.01,0
300,-300,-696.69,0
300,-300,-913.67,0
300,-300,-1148.29,0
300,-300,-1394.57,0
300,-300,-1646.28,0
300,-300,-1895.53,0
300,-300,-2136.3,0
300,-300,-2363.57,0
300,-300,-2573.74,0
300,-300,-2764.57,0
300,-300,-2935.69,0
300,-300,-3089.87,0
300,-300,-3225.4,0
300,-300,-3343.98,0
300,-300,-3445.17,0
300,-300,-3527.99,0
300,-300,-3591.76,0
300,-300,-3634.05,0
300,-300,-3653.56,0
300,-300,-3649.28,0
300,-300,-3621.86,0
300,-300,-3578.68,0
300,-300,-3520.54,0
300,-300,-3455.23,0
300,-300,-3391,0
300,-300,-3335.52,0
300,-300,-3295.82,0
300,-300,-3276.03,0
300,-300,-3277.84,0
300,-300,-3299.55,0
300,-300,-3336.43,0
300,-300,-3377.69,0
300,-300,-3418.26,0
300,-300,-3446.21,0
300,-300,-3455.34,0
300,-300,-3439.83,0
300,-300,-3397.43,0
300,-300,-3329.74,0
300,-300,-3241.12,0
300,-300,-3139.28,0
300,-300,-3033.19,0
300,-300,-2931.66,0
300,-300,-2842.63,0
300,-300,-2768.83,0
300,-300,-2714.08,0
300,-300,-2675.85,0
300,-300,-2649.75,0
300,-300,-2628.77,0
300,-300,-2605.41,0
300,-300,-2571.94,0
300,-300,-2524.17,0
300,-300,-2457.85,0
300,-300,-2371.95,0
300,-300,-2270.6,0
300,-300,-2155.38,0
300,-300,-2031.92,0
300,-300,-1905.9,0
300,-300,-1781.15,0
300,-300,-1660.55,0
300,-300,-1544.12,0
300,-300,-1428.67,0
300,-300,-1312.31,0
300,-300,-1191.58,0
300,-300,-1064.2,0
300,-300,-927.78,0
300,-300,-783.28,0
300,-300,-634.62,0
300,-300,-487.03,0
300,-300,-348.49,0
300,-300,-226.87,0
300,-300,-134.7,0
300,-300,-74.56,0
300,-300,-51.36,0
300,-300,-66.88,0
300,-300,-117.31,0
300,-300,-197.11,0
300,-300,-297.88,0
300,-300,-409.55,0
300,-300,-522.74,0
300,-300,-628.18,0
300,-300,-725.06,0
300,-300,-808.54,0
300,-300,-877.34,0
300,-300,-935.6,0
300,-300,-987.3,0
300,-300,-1036.69,0
300,-300,-1087.54,0
300,-300,-1141.8,0
300,-300,-1199.79,0
300,-300,-1259.81,0
300,-300,-1321.03,0
300,-300,-1379.33,0
300,-300,-1430.54,0
300,-300,-1475.87,0
300,-300,-1516.3,0
300,-300,-1555.01,0
300,-300,-1597.85,0
300,-300,-1651.26,0
300,-300,-1722.74,0
300,-300,-1817.55,0
300,-300,-1935.02,0
300,-300,-2081.34,0
300,-300,-2248.92,0
300,-300,-2434.33,0
300,-300,-2628.28,0
300,-300,-2821.12,0
300,-300,-3003.06,0
300,-300,-3165.16,0
300,-300,-3301.11,0
300,-300,-3409.89,0
300,-300,-3488.59,0
300,-300,-3540.47,0
300,-300,-3563.88,0
300,-300,-3565.6,0
300,-300,-3546.98,0
300,-300,-3507.89,0
300,-300,-3446.58,0
300,-300,-3359.44,0
300,-300,-3242.67,0
300,-300,-3093.2,0
300,-300,-2906.59,0
300,-300,-2682.31,0
300,-300,-2425.95,0
300,-300,-2139.96,0
300,-300,-1835.18,0
300,-300,-1522.96,0
300,-300,-1217.05,0
300,-300,-930.64,0
300,-300,-675.53,0
300,-300,-461.26,0
300,-300,-292.31,0
300,-300,-170.89,0
300,-300,-95.01,0
300,-300,-60.05,0
300,-300,-59.41,0
300,-300,-85.92,0
300,-300,-132.23,0
300,-300,-191.89,0
300,-300,-260.03,0
300,-300,-333.22,0
300,-300,-409.95,0
300,-300,-488.18,0
300,-300,-567.56,0
300,-300,-647.68,0
300,-300,-726.51,0
300,-300,-802.68,0
300,-300,-873.63,0
300,-300,-936.49,0
300,-300,-989.17,0
300,-300,-1028.53,0
300,-300,-1054.19,0
300,-300,-1066.73,0
300,-300,-1065.5,0
300,-300,-1051.31,0
300,-300,-1025.87,0
300,-300,-990.85,0
300,-300,-948,0
300,-300,-898.46,0
300,-300,-843.52,0
300,-300,-783.94,0
300,-300,-723.12,0
300,-300,-658.11,0
300,-300,-595.93,0
300,-300,-539.09,0
300,-300,-489.69,0
300,-300,-451.11,0
300,-300,-425.91,0
300,-300,-415.67,0
300,-300,-415.94,0
300,-300,-430.59,0
300,-300,-457.1,0
300,-300,-488.42,0
300,-300,-522.77,0
300,-300,-558.14,0
300,-300,-590.59,0
300,-300,-617.64,0
300,-300,-638.45,0
300,-300,-653.25,0
300,-300,-663,0
300,-300,-669.57,0
300,-300,-675.08,0
300,-300,-679.61,0
300,-300,-684.55,0
300,-300,-689.66,0
300,-300,-693.49,0
300,-300,-694.14,0
300,-300,-690.12,0
300,-300,-679.96,0
300,-300,-664.78,0
300,-300,-644.4,0
300,-300,-620.16,0
300,-300,-599.57,0
300,-300,-580.52,0
300,-300,-567.03,0
300,-300,-561.74,0
300,-300,-565.8,0
300,-300,-578.94,0
300,-300,-599.62,0
300,-300,-625.9,0
300,-300,-656.35,0
300,-300,-686.62,0
300,-300,-718.58,0
300,-300,-752.56,0
300,-300,-791.57,0
300,-300,-838.92,0
300,-300,-898.91,0
300,-300,-975.27,0
300,-300,-1071.89,0
300,-300,-1189.92,0
300,-300,-1329.59,0
300,-300,-1486.28,0
300,-300,-1656.95,0
300,-300,-1834.78,0
300,-300,-2012.78,0
300,-300,-2184.8,0
300,-300,-2345.86,0
300,-300,-2492.75,0
300,-300,-2624.66,0
300,-300,-2742.1,0
300,-300,-2847.29,0
300,-300,-2941.59,0
300,-300,-3028.06,0
300,-300,-3106.42,0
300,-300,-3176.57,0
300,-300,-3235.66,0
300,-300,-3280.94,0
300,-300,-3307.95,0
300,-300,-3314.19,0
300,-300,-3296.97,0
300,-300,-3256.26,0
300,-300,-3194.77,0
300,-300,-3116.62,0
300,-300,-3028.64,0
300,-300,-2938.27,0
300,-300,-2852.65,0
300,-300,-2777.89,0
300,-300,-2717.63,0
300,-300,-2667.89,0
300,-300,-2631.01,0
300,-300,-2601.18,0
300,-300,-2573.5,0
300,-300,-2540.44,0
300,-300,-2497.25,0
300,-300,-2440.93,0
300,-300,-2370.42,0
300,-300,-2287.81,0
300,-300,-2197.27,0
300,-300,-2104.4,0
300,-300,-2014.25,0
300,-300,-1932.14,0
300,-300,-1861.6,0
300,-300,-1802.58,0
300,-300,-1753.55,0
300,-300,-1710.35,0
300,-300,-1666.72,0
300,-300,-1617.23,0
300,-300,-1555.62,0
300,-300,-1478.79,0
300,-300,-1382.98,0
300,-300,-1274.51,0
300,-300,-1151.79,0
300,-300,-1021.39,0
300,-300,-890.22,0
300,-300,-765.24,0
300,-300,-652.24,0
300,-300,-555.18,0
300,-300,-475.59,0
300,-300,-413.25,0
300,-300,-367.13,0
300,-300,-334.7,0
300,-300,-313.87,0
300,-300,-303.48,0
300,-300,-303.61,0
300,-300,-316.12,0
300,-300,-343.74,0
300,-300,-389.9,0
300,-300,-458.22,0
300,-300,-551.18,0
300,-300,-670.01,0
300,-300,-812.37,0
300,-300,-975.64,0
300,-300,-1154.63,0
300,-300,-1342.79,0
300,-300,-1533.22,0
300,-300,-1719.36,0
300,-300,-1896.31,0
300,-300,-2060.23,0
300,-300,-2211.02,0
300,-300,-2347.3,0
300,-300,-2470.46,0
300,-300,-2582.06,0
300,-300,-2683.64,0
300,-300,-2775.47,0
300,-300,-2856.8,0
300,-300,-2925.37,0
300,-300,-2978.66,0
300,-300,-3013.25,0
300,-300,-3028.19,0
300,-300,-3020.32,0
300,-300,-2991.15,0
300,-300,-2943.09,0
300,-300,-2881.13,0
300,-300,-2811.76,0
300,-300,-2742.59,0
300,-300,-2680.62,0
300,-300,-2632.38,0
300,-300,-2601.99,0
300,-300,-2592.26,0
300,-300,-2599.17,0
300,-300,-2619.11,0
300,-300,-2644.37,0
300,-300,-2666.84,0
300,-300,-2677.26,0
300,-300,-2668.35,0
300,-300,-2634.01,0
300,-300,-2572.1,0
300,-300,-2482.96,0
300,-300,-2370.78,0
300,-300,-2242.54,0
300,-300,-2106.56,0
300,-300,-1972.1,0
300,-300,-1846.84,0
300,-300,-1737.93,0
300,-300,-1648.38,0
300,-300,-1579.31,0
300,-300,-1528.24,0
300,-300,-1491.07,0
300,-300,-1459.22,0
300,-300,-1431.83,0
300,-300,-1397.27,0
300,-300,-1351.05,0
300,-300,-1290.39,0
300,-300,-1214.9,0
300,-300,-1126.62,0
300,-300,-1028.28,0
300,-300,-924.72,0
300,-300,-820.19,0
300,-300,-720.04,0
300,-300,-627.09,0
300,-300,-544.91,0
300,-300,-474.22,0
300,-300,-415.16,0
300,-300,-367.3,0
300,-300,-329.65,0
300,-300,-301.66,0
300,-300,-283.13,0
300,-300,-275.73,0
300,-300,-280.61,0
300,-300,-299.86,0
300,-300,-336.43,0
300,-300,-393.06,0
300,-300,-471.04,0
300,-300,-571.12,0
300,-300,-691.89,0
300,-300,-830.84,0
300,-300,-984.07,0
300,-300,-1147.43,0
300,-300,-1314.63,0
300,-300,-1481.25,0
300,-300,-1641.81,0
300,-300,-1793.75,0
300,-300,-1934.62,0
300,-300,-2063.37,0
300,-300,-2179.85,0
300,-300,-2284.65,0
300,-300,-2378.46,0
300,-300,-2462.56,0
300,-300,-2535.58,0
300,-300,-2597.07,0
300,-300,-2645.38,0
300,-300,-2678.78,0
300,-300,-2695.79,0
300,-300,-2695.02,0
300,-300,-2676.98,0
300,-300,-2642.95,0
300,-300,-2596.69,0
300,-300,-2542.67,0
300,-300,-2487.15,0
300,-300,-2434.22,0
300,-300,-2390.52,0
300,-300,-2358.82,0
300,-300,-2340.66,0
300,-300,-2334.39,0
300,-300,-2336.59,0
300,-300,-2341.88,0
300,-300,-2343.9,0
300,-300,-2330.8,0
300,-300,-2302.77,0
300,-300,-2251.74,0
300,-300,-2178.17,0
300,-300,-2083.15,0
300,-300,-1970.7,0
300,-300,-1847.53,0
300,-300,-1721.81,0
300,-300,-1601.23,0
300,-300,-1492.43,0
300,-300,-1401.04,0
300,-300,-1329.39,0
300,-300,-1275.76,0
300,-300,-1239,0
300,-300,-1213,0
300,-300,-1191.26,0
300,-300,-1167.07,0
300,-300,-1134.17,0
300,-300,-1088.65,0
300,-300,-1029.2,0
300,-300,-955.1,0
300,-300,-869.62,0
300,-300,-777.05,0
300,-300,-681.25,0
300,-300,-587.71,0
300,-300,-500.79,0
300,-300,-423.45,0
300,-300,-357.41,0
300,-300,-303.34,0
300,-300,-262.18,0
300,-300,-232.01,0
300,-300,-213.02,0
300,-300,-205.75,0
300,-300,-209.78,0
300,-300,-227.8,0
300,-300,-262.05,0
300,-300,-314.43,0
300,-300,-387.94,0
300,-300,-482.68,0
300,-300,-600.14,0
300,-300,-737.43,0
300,-300,-892.32,0
300,-300,-1059.79,0
300,-300,-1235.57,0
300,-300,-1413.75,0
300,-300,-1589.73,0
300,-300,-1758.97,0
300,-300,-1918.65,0
300,-300,-2066.68,0
300,-300,-2202.71,0
300,-300,-2327.33,0
300,-300,-2439.8,0
300,-300,-2541.68,0
300,-300,-2632.72,0
300,-300,-2712.16,0
300,-300,-2778.38,0
300,-300,-2829.49,0
300,-300,-2863.13,0
300,-300,-2877.89,0
300,-300,-2873.19,0
300,-300,-2850.32,0
300,-300,-2810.7,0
300,-300,-2759.68,0
300,-300,-2702.06,0
300,-300,-2644.61,0
300,-300,-2592.8,0
300,-300,-2552.38,0
300,-300,-2527.36,0
300,-300,-2516.69,0
300,-300,-2520.26,0
300,-300,-2533.27,0
300,-300,-2549.1,0
300,-300,-2560.87,0
300,-300,-2561.41,0
300,-300,-2543.71,0
300,-300,-2503.79,0
300,-300,-2439.5,0
300,-300,-2352.12,0
300,-300,-2245.47,0
300,-300,-2126.03,0
300,-300,-2000.91,0
300,-300,-1878.19,0
300,-300,-1764.17,0
300,-300,-1664.69,0
300,-300,-1581.95,0
300,-300,-1516.13,0
300,-300,-1464.25,0
300,-300,-1422.02,0
300,-300,-1383.9,0
300,-300,-1343.4,0
300,-300,-1294.1,0
300,-300,-1237.36,0
300,-300,-1165.51,0
300,-300,-1080.88,0
300,-300,-985.77,0
300,-300,-884.55,0
300,-300,-781.43,0
300,-300,-681.33,0
300,-300,-587.2,0
300,-300,-502.75,0
300,-300,-429.41,0
300,-300,-367.55,0
300,-300,-316.65,0
300,-300,-276.47,0
300,-300,-246.28,0
300,-300,-226.12,0
300,-300,-216.97,0
300,-300,-220.58,0
300,-300,-239.73,0
300,-300,-277.71,0
300,-300,-335.73,0
300,-300,-417.36,0
300,-300,-522.26,0
300,-300,-649.93,0
300,-300,-797.7,0
300,-300,-961.89,0
300,-300,-1137.02,0
300,-300,-1318.24,0
300,-300,-1499.73,0
300,-300,-1677.26,0
300,-300,-1845.72,0
300,-300,-2004.08,0
300,-300,-2150.61,0
300,-300,-2285.27,0
300,-300,-2408.61,0
300,-300,-2521.09,0
300,-300,-2622.8,0
300,-300,-2714.28,0
300,-300,-2793.7,0
300,-300,-2859.83,0
300,-300,-2909.49,0
300,-300,-2941.95,0
300,-300,-2955.66,0
300,-300,-2950.62,0
300,-300,-2927.95,0
300,-300,-2891.53,0
300,-300,-2845.35,0
300,-300,-2796.78,0
300,-300,-2750.29,0
300,-300,-2712.73,0
300,-300,-2687.72,0
300,-300,-2678.18,0
300,-300,-2684.26,0
300,-300,-2704.3,0
300,-300,-2733.63,0
300,-300,-2766.7,0
300,-300,-2796.18,0
300,-300,-2810.43,0
300,-300,-2805.55,0
300,-300,-2775.33,0
300,-300,-2716.55,0
300,-300,-2628.36,0
300,-300,-2513.34,0
300,-300,-2376.27,0
300,-300,-2224.53,0
300,-300,-2065.59,0
300,-300,-1908.74,0
300,-300,-1761.94,0
300,-300,-1631.59,0
300,-300,-1523.91,0
300,-300,-1439.69,0
300,-300,-1378.86,0
300,-300,-1337.89,0
300,-300,-1312.26,0
300,-300,-1294.86,0
300,-300,-1279.37,0
300,-300,-1258.86,0
300,-300,-1228.15,0
300,-300,-1184.49,0
300,-300,-1125.14,0
300,-300,-1051.03,0
300,-300,-964.44,0
300,-300,-868.86,0
300,-300,-769.1,0
300,-300,-669.64,0
300,-300,-574.53,0
300,-300,-486.85,0
300,-300,-409.43,0
300,-300,-343.03,0
300,-300,-287.37,0
300,-300,-242.69,0
300,-300,-208.37,0
300,-300,-184.36,0
300,-300,-171.65,0
300,-300,-171.69,0
300,-300,-187.27,0
300,-300,-221.56,0
300,-300,-276.67,0
300,-300,-355.11,0
300,-300,-458.33,0
300,-300,-585.17,0
300,-300,-734.09,0
300,-300,-900.37,0
300,-300,-1079.47,0
300,-300,-1265.03,0
300,-300,-1451.15,0
300,-300,-1633.64,0
300,-300,-1806.91,0
300,-300,-1968.66,0
300,-300,-2118.13,0
300,-300,-2254.06,0
300,-300,-2378.33,0
300,-300,-2491.2,0
300,-300,-2593.83,0
300,-300,-2685.43,0
300,-300,-2765.13,0
300,-300,-2831.64,0
300,-300,-2881.84,0
300,-300,-2913.42,0
300,-300,-2925.04,0
300,-300,-2915.8,0
300,-300,-2887.51,0
300,-300,-2843.35,0
300,-300,-2787.99,0
300,-300,-2727.87,0
300,-300,-2670.03,0
300,-300,-2621.17,0
300,-300,-2587.38,0
300,-300,-2571.36,0
300,-300,-2574.76,0
300,-300,-2596.37,0
300,-300,-2632.36,0
300,-300,-2676.51,0
300,-300,-2721.53,0
300,-300,-2759.39,0
300,-300,-2782.73,0
300,-300,-2778.63,0
300,-300,-2748.78,0
300,-300,-2687.52,0
300,-300,-2596.6,0
300,-300,-2478.66,0
300,-300,-2339.97,0
300,-300,-2187.57,0
300,-300,-2030.67,0
300,-300,-1877.93,0
300,-300,-1738.37,0
300,-300,-1618.21,0
300,-300,-1521.27,0
300,-300,-1453.32,0
300,-300,-1410.17,0
300,-300,-1387.97,0
300,-300,-1381.31,0
300,-300,-1382.98,0
300,-300,-1385.49,0
300,-300,-1380.89,0
300,-300,-1364.42,0
300,-300,-1329.91,0
300,-300,-1275.55,0
300,-300,-1201.74,0
300,-300,-1110.43,0
300,-300,-1005.98,0
300,-300,-894.06,0
300,-300,-780.25,0
300,-300,-670.13,0
300,-300,-567.74,0
300,-300,-477.67,0
300,-300,-400.38,0
300,-300,-337.07,0
300,-300,-287.63,0
300,-300,-250.69,0
300,-300,-227.02,0
300,-300,-216.45,0
300,-300,-220.19,0
300,-300,-240.21,0
300,-300,-278.91,0
300,-300,-339.29,0
300,-300,-423.22,0
300,-300,-531.73,0
300,-300,-663.96,0
300,-300,-817.07,0
300,-300,-987.43,0
300,-300,-1168.83,0
300,-300,-1355.52,0
300,-300,-1540.67,0
300,-300,-1719.1,0
300,-300,-1885.95,0
300,-300,-2040.07,0
300,-300,-2178.7,0
300,-300,-2303.92,0
300,-300,-2416.57,0
300,-300,-2518.63,0
300,-300,-2610.82,0
300,-300,-2693.05,0
300,-300,-2764.66,0
300,-300,-2823.43,0
300,-300,-2866.48,0
300,-300,-2891.03,0
300,-300,-2893.72,0
300,-300,-2875.13,0
300,-300,-2835.96,0
300,-300,-2779.03,0
300,-300,-2710.1,0
300,-300,-2636.15,0
300,-300,-2564.38,0
300,-300,-2503.65,0
300,-300,-2458.84,0
300,-300,-2434.89,0
300,-300,-2431.86,0
300,-300,-2448.49,0
300,-300,-2478.81,0
300,-300,-2515.15,0
300,-300,-2547.97,0
300,-300,-2567.63,0
300,-300,-2565.15,0
300,-300,-2530.32,0
300,-300,-2463.21,0
300,-300,-2362.65,0
300,-300,-2232.01,0
300,-300,-2078.35,0
300,-300,-1911.59,0
300,-300,-1742.51,0
300,-300,-1581.78,0
300,-300,-1438.95,0
300,-300,-1321.17,0
300,-300,-1232.26,0
300,-300,-1172.61,0
300,-300,-1138.14,0
300,-300,-1128.21,0
300,-300,-1129.46,0
300,-300,-1134.07,0
300,-300,-1134.06,0
300,-300,-1122.69,0
300,-300,-1094.68,0
300,-300,-1047.76,0
300,-300,-981.83,0
300,-300,-899.56,0
300,-300,-804.61,0
300,-300,-702.47,0
300,-300,-599.3,0
300,-300,-500.1,0
300,-300,-409.16,0
300,-300,-330.14,0
300,-300,-264.18,0
300,-300,-212.62,0
300,-300,-174.96,0
300,-300,-152.34,0
300,-300,-142.61,0
300,-300,-148.02,0
300,-300,-169.38,0
300,-300,-208.03,0
300,-300,-266.11,0
300,-300,-345.28,0
300,-300,-446.58,0
300,-300,-570.18,0
300,-300,-714.37,0
300,-300,-877.13,0
300,-300,-1052.32,0
300,-300,-1235.99,0
300,-300,-1422.05,0
300,-300,-1604.51,0
300,-300,-1778.97,0
300,-300,-1941.48,0
300,-300,-2090.19,0
300,-300,-2225.86,0
300,-300,-2347.58,0
300,-300,-2457.43,0
300,-300,-2556.45,0
300,-300,-2645.63,0
300,-300,-2724.93,0
300,-300,-2792.78,0
300,-300,-2847.56,0
300,-300,-2886.03,0
300,-300,-2905.77,0
300,-300,-2905.83,0
300,-300,-2885.12,0
300,-300,-2845.5,0
300,-300,-2791.25,0
300,-300,-2726.71,0
300,-300,-2659.69,0
300,-300,-2597.32,0
300,-300,-2546.45,0
300,-300,-2512.42,0
300,-300,-2498.55,0
300,-300,-2506.61,0
300,-300,-2533.34,0
300,-300,-2573.33,0
300,-300,-2618.99,0
300,-300,-2661.62,0
300,-300,-2691.45,0
300,-300,-2699.83,0
300,-300,-2680.04,0
300,-300,-2627.84,0
300,-300,-2542.42,0
300,-300,-2423.16,0
300,-300,-2279.69,0
300,-300,-2117.02,0
300,-300,-1946.38,0
300,-300,-1777.37,0
300,-300,-1619.84,0
300,-300,-1481.44,0
300,-300,-1368.58,0
300,-300,-1283.73,0
300,-300,-1227.15,0
300,-300,-1193.32,0
300,-300,-1177.87,0
300,-300,-1176.37,0
300,-300,-1177.05,0
300,-300,-1172.71,0
300,-300,-1157.61,0
300,-300,-1126.8,0
300,-300,-1078.25,0
300,-300,-1011.4,0
300,-300,-928.16,0
300,-300,-832.35,0
300,-300,-728.61,0
300,-300,-622.17,0
300,-300,-518.72,0
300,-300,-421.85,0
300,-300,-336.17,0
300,-300,-263.36,0
300,-300,-205.23,0
300,-300,-162.49,0
300,-300,-136.82,0
300,-300,-127.2,0
300,-300,-135.02,0
300,-300,-161.04,0
300,-300,-206.4,0
300,-300,-272.55,0
300,-300,-361.01,0
300,-300,-471.2,0
300,-300,-602.93,0
300,-300,-754.11,0
300,-300,-922.23,0
300,-300,-1101.74,0
300,-300,-1287.67,0
300,-300,-1474.6,0
300,-300,-1657.03,0
300,-300,-1830.97,0
300,-300,-1993.33,0
300,-300,-2142.26,0
300,-300,-2277.84,0
300,-300,-2400.12,0
300,-300,-2511.38,0
300,-300,-2611.99,0
300,-300,-2703.23,0
300,-300,-2784.74,0
300,-300,-2855.1,0
300,-300,-2912.74,0
300,-300,-2955.29,0
300,-300,-2980.09,0
300,-300,-2986.06,0
300,-300,-2972.56,0
300,-300,-2941.6,0
300,-300,-2897.12,0
300,-300,-2842.54,0
300,-300,-2785.66,0
300,-300,-2732.52,0
300,-300,-2689.03,0
300,-300,-2659.65,0
300,-300,-2647.42,0
300,-300,-2652.48,0
300,-300,-2672.72,0
300,-300,-2703.27,0
300,-300,-2738.82,0
300,-300,-2770.1,0
300,-300,-2790.43,0
300,-300,-2792.24,0
300,-300,-2769.68,0
300,-300,-2718.81,0
300,-300,-2638.39,0
300,-300,-2529.39,0
300,-300,-2395.9,0
300,-300,-2241.57,0
300,-300,-2076.48,0
300,-300,-1907.19,0
300,-300,-1742.51,0
300,-300,-1590.57,0
300,-300,-1457.66,0
300,-300,-1348.22,0
300,-300,-1264.98,0
300,-300,-1207.8,0
300,-300,-1174.14,0
300,-300,-1159,0
300,-300,-1156.15,0
300,-300,-1161.61,0
300,-300,-1164.45,0
300,-300,-1159.33,0
300,-300,-1140.7,0
300,-300,-1105.33,0
300,-300,-1051.21,0
300,-300,-979.32,0
300,-300,-891.49,0
300,-300,-792.44,0
300,-300,-685.45,0
300,-300,-578.4,0
300,-300,-474.19,0
300,-300,-377.5,0
300,-300,-291.98,0
300,-300,-219.95,0
300,-300,-162.36,0
300,-300,-120.13,0
300,-300,-93.49,0
300,-300,-83.87,0
300,-300,-91.84,0
300,-300,-118.88,0
300,-300,-166.96,0
300,-300,-237.95,0
300,-300,-333.3,0
300,-300,-453.86,0
300,-300,-598.35,0
300,-300,-764.66,0
300,-300,-948.59,0
300,-300,-1145.3,0
300,-300,-1347.85,0
300,-300,-1550.86,0
300,-300,-1748.22,0
300,-300,-1935.22,0
300,-300,-2108.51,0
300,-300,-2266.3,0
300,-300,-2407.75,0
300,-300,-2534.24,0
300,-300,-2647.18,0
300,-300,-2748.13,0
300,-300,-2836.28,0
300,-300,-2912.88,0
300,-300,-2976.78,0
300,-300,-3025.85,0
300,-300,-3057.59,0
300,-300,-3070.82,0
300,-300,-3064.22,0
300,-300,-3038.63,0
300,-300,-2997.19,0
300,-300,-2943.67,0
300,-300,-2883.1,0
300,-300,-2823.28,0
300,-300,-2769.85,0
300,-300,-2729.03,0
300,-300,-2704.39,0
300,-300,-2698.11,0
300,-300,-2708.86,0
300,-300,-2733.88,0
300,-300,-2767.91,0
300,-300,-2802.8,0
300,-300,-2830.56,0
300,-300,-2843.07,0
300,-300,-2833.95,0
300,-300,-2797.78,0
300,-300,-2731.95,0
300,-300,-2636.59,0
300,-300,-2514.59,0
300,-300,-2371.16,0
300,-300,-2212.88,0
300,-300,-2048.17,0
300,-300,-1885.66,0
300,-300,-1732.61,0
300,-300,-1596.2,0
300,-300,-1480.54,0
300,-300,-1388.32,0
300,-300,-1319.05,0
300,-300,-1270.73,0
300,-300,-1238.39,0
300,-300,-1216.24,0
300,-300,-1198.45,0
300,-300,-1180.24,0
300,-300,-1153.9,0
300,-300,-1115.71,0
300,-300,-1063.34,0
300,-300,-996.28,0
300,-300,-915.33,0
300,-300,-823.57,0
300,-300,-724.53,0
300,-300,-621.62,0
300,-300,-520.63,0
300,-300,-425.44,0
300,-300,-339.5,0
300,-300,-264.41,0
300,-300,-202.68,0
300,-300,-154.7,0
300,-300,-121.13,0
300,-300,-101.78,0
300,-300,-97.76,0
300,-300,-108.82,0
300,-300,-136.92,0
300,-300,-182.33,0
300,-300,-247.54,0
300,-300,-332.74,0
300,-300,-438.61,0
300,-300,-563.71,0
300,-300,-706.34,0
300,-300,-862.73,0
300,-300,-1029.91,0
300,-300,-1201.79,0
300,-300,-1373.98,0
300,-300,-1541.05,0
300,-300,-1700.29,0
300,-300,-1848.88,0
300,-300,-1985.45,0
300,-300,-2109.63,0
300,-300,-2222.13,0
300,-300,-2323.29,0
300,-300,-2415.06,0
300,-300,-2496.09,0
300,-300,-2566.59,0
300,-300,-2624.89,0
300,-300,-2668.97,0
300,-300,-2697.44,0
300,-300,-2708.67,0
300,-300,-2702.25,0
300,-300,-2679.14,0
300,-300,-2641.94,0
300,-300,-2596.04,0
300,-300,-2546.43,0
300,-300,-2499.19,0
300,-300,-2460.35,0
300,-300,-2435.39,0
300,-300,-2427.38,0
300,-300,-2436.32,0
300,-300,-2460,0
300,-300,-2493.42,0
300,-300,-2529.12,0
300,-300,-2552.46,0
300,-300,-2561.21,0
300,-300,-2544.51,0
300,-300,-2498.19,0
300,-300,-2420.78,0
300,-300,-2313,0
300,-300,-2181.21,0
300,-300,-2033.37,0
300,-300,-1880.3,0
300,-300,-1732.47,0
300,-300,-1599.48,0
300,-300,-1489.55,0
300,-300,-1406.18,0
300,-300,-1350.76,0
300,-300,-1320.52,0
300,-300,-1308.42,0
300,-300,-1306.41,0
300,-300,-1304.84,0
300,-300,-1295.34,0
300,-300,-1270.68,0
300,-300,-1226.54,0
300,-300,-1160.64,0
300,-300,-1075.69,0
300,-300,-974.48,0
300,-300,-863.71,0
300,-300,-749.07,0
300,-300,-637.39,0
300,-300,-533.97,0
300,-300,-442.1,0
300,-300,-364.85,0
300,-300,-301.65,0
300,-300,-252.45,0
300,-300,-217.27,0
300,-300,-193.91,0
300,-300,-183.03,0
300,-300,-185.6,0
300,-300,-204.1,0
300,-300,-241.4,0
300,-300,-299.77,0
300,-300,-383.18,0
300,-300,-491.86,0
300,-300,-625,0
300,-300,-782.06,0
300,-300,-957.24,0
300,-300,-1145.7,0
300,-300,-1340.45,0
300,-300,-1535.35,0
300,-300,-1723.54,0
300,-300,-1901.07,0
300,-300,-2064.75,0
300,-300,-2213.81,0
300,-300,-2347.61,0
300,-300,-2468.56,0
300,-300,-2577.67,0
300,-300,-2676.95,0
300,-300,-2766.44,0
300,-300,-2845.55,0
300,-300,-2912.06,0
300,-300,-2963.18,0
300,-300,-2995.68,0
300,-300,-3007.82,0
300,-300,-2996.46,0
300,-300,-2963.77,0
300,-300,-2912.19,0
300,-300,-2847.09,0
300,-300,-2774.85,0
300,-300,-2703.73,0
300,-300,-2641.44,0
300,-300,-2595.34,0
300,-300,-2569.8,0
300,-300,-2567.87,0
300,-300,-2586.13,0
300,-300,-2621.98,0
300,-300,-2666.98,0
300,-300,-2711.97,0
300,-300,-2746.28,0
300,-300,-2760.57,0
300,-300,-2746.86,0
300,-300,-2695.51,0
300,-300,-2609.59,0
300,-300,-2489.82,0
300,-300,-2340.85,0
300,-300,-2172.23,0
300,-300,-1993.99,0
300,-300,-1818.04,0
300,-300,-1654.49,0
300,-300,-1512.44,0
300,-300,-1397.86,0
300,-300,-1313.24,0
300,-300,-1257.67,0
300,-300,-1225.51,0
300,-300,-1215.52,0
300,-300,-1213.49,0
300,-300,-1211.4,0
300,-300,-1201.82,0
300,-300,-1177.66,0
300,-300,-1135.79,0
300,-300,-1073.88,0
300,-300,-994.29,0
300,-300,-898.35,0
300,-300,-791.78,0
300,-300,-680.62,0
300,-300,-569.88,0
300,-300,-464.97,0
300,-300,-370.1,0
300,-300,-287.5,0
300,-300,-218.78,0
300,-300,-163.38,0
300,-300,-122.16,0
300,-300,-94.48,0
300,-300,-80.12,0
300,-300,-80.59,0
300,-300,-98.06,0
300,-300,-134.87,0
300,-300,-194.38,0
300,-300,-278.83,0
300,-300,-390.3,0
300,-300,-529.02,0
300,-300,-693.64,0
300,-300,-881.36,0
300,-300,-1085.59,0
300,-300,-1300.89,0
300,-300,-1520.46,0
300,-300,-1736.98,0
300,-300,-1944.9,0
300,-300,-2139.84,0
300,-300,-2319.26,0
300,-300,-2482.5,0
300,-300,-2629.9,0
300,-300,-2762.95,0
300,-300,-2881.78,0
300,-300,-2987.58,0
300,-300,-3080.47,0
300,-300,-3158.46,0
300,-300,-3219.21,0
300,-300,-3259.79,0
300,-300,-3277.77,0
300,-300,-3272.32,0
300,-300,-3244.06,0
300,-300,-3194.73,0
300,-300,-3129.55,0
300,-300,-3054.97,0
300,-300,-2979.17,0
300,-300,-2909.71,0
300,-300,-2854.27,0
300,-300,-2817.87,0
300,-300,-2803.22,0
300,-300,-2808.15,0
300,-300,-2828,0
300,-300,-2855.61,0
300,-300,-2881.6,0
300,-300,-2895.59,0
300,-300,-2888.6,0
300,-300,-2853.88,0
300,-300,-2787.32,0
300,-300,-2688.95,0
300,-300,-2562.66,0
300,-300,-2417.28,0
300,-300,-2261.27,0
300,-300,-2105.93,0
300,-300,-1961.86,0
300,-300,-1836.96,0
300,-300,-1737.77,0
300,-300,-1665.5,0
300,-300,-1618.98,0
300,-300,-1592.53,0
300,-300,-1578.93,0
300,-300,-1570.2,0
300,-300,-1555.64,0
300,-300,-1532.52,0
300,-300,-1490.95,0
300,-300,-1429.11,0
300,-300,-1348.41,0
300,-300,-1251.91,0
300,-300,-1144.89,0
300,-300,-1033.31,0
300,-300,-923.39,0
300,-300,-819.93,0
300,-300,-728.57,0
300,-300,-651.14,0
300,-300,-589.67,0
300,-300,-543.2,0
300,-300,-511.89,0
300,-300,-494.52,0
300,-300,-490.26,0
300,-300,-499.38,0
300,-300,-522.69,0
300,-300,-561.77,0
300,-300,-618.28,0
300,-300,-692.72,0
300,-300,-787.97,0
300,-300,-902.78,0
300,-300,-1036.48,0
300,-300,-1185.44,0
300,-300,-1345.76,0
300,-300,-1511.59,0
300,-300,-1678.36,0
300,-300,-1839.2,0
300,-300,-1990.07,0
300,-300,-2126.29,0
300,-300,-2245.72,0
300,-300,-2347.75,0
300,-300,-2431.67,0
300,-300,-2498.48,0
300,-300,-2548.78,0
300,-300,-2583.4,0
300,-300,-2602.59,0
300,-300,-2605.13,0
300,-300,-2590.46,0
300,-300,-2556.9,0
300,-300,-2503.05,0
300,-300,-2429.71,0
300,-300,-2337.74,0
300,-300,-2230.15,0
300,-300,-2112.01,0
300,-300,-1989.63,0
300,-300,-1870.18,0
300,-300,-1759.99,0
300,-300,-1664.91,0
300,-300,-1588.28,0
300,-300,-1532.08,0
300,-300,-1494.28,0
300,-300,-1471.47,0
300,-300,-1456.93,0
300,-300,-1444.25,0
300,-300,-1426.32,0
300,-300,-1396.16,0
300,-300,-1352.88,0
300,-300,-1294.15,0
300,-300,-1222.52,0
300,-300,-1142.74,0
300,-300,-1060.57,0
300,-300,-982.42,0
300,-300,-914.19,0
300,-300,-860.08,0
300,-300,-821.75,0
300,-300,-796.56,0
300,-300,-782.79,0
300,-300,-775.59,0
300,-300,-768.27,0
300,-300,-754.37,0
300,-300,-728.52,0
300,-300,-687.06,0
300,-300,-629.41,0
300,-300,-556.64,0
300,-300,-471.83,0
300,-300,-380.48,0
300,-300,-288.65,0
300,-300,-200.42,0
300,-300,-121.54,0
300,-300,-55.8,0
300,-300,-4.6,0
300,-300,30.78,0
300,-300,50.66,0
300,-300,55.48,0
300,-300,44.79,0
300,-300,18.86,0
300,-300,-23.92,0
300,-300,-84.14,0
300,-300,-164.39,0
300,-300,-266.49,0
300,-300,-391.38,0
300,-300,-538.44,0
300,-300,-705.75,0
300,-300,-889.89,0
300,-300,-1087.31,0
300,-300,-1290.91,0
300,-300,-1495.64,0
300,-300,-1696.69,0
300,-300,-1888.16,0
300,-300,-2067.56,0
300,-300,-2232.69,0
300,-300,-2383.11,0
300,-300,-2518.92,0
300,-300,-2641.05,0
300,-300,-2750.39,0
300,-300,-2846.84,0
300,-300,-2930.3,0
300,-300,-2998.95,0
300,-300,-3051.33,0
300,-300,-3085.42,0
300,-300,-3099.61,0
300,-300,-3093.36,0
300,-300,-3067.15,0
300,-300,-3024.3,0
300,-300,-2969.46,0
300,-300,-2909.17,0
300,-300,-2849.02,0
300,-300,-2797.06,0
300,-300,-2758.67,0
300,-300,-2737.69,0
300,-300,-2734.52,0
300,-300,-2747.03,0
300,-300,-2770.22,0
300,-300,-2796.62,0
300,-300,-2809.34,0
300,-300,-2806.94,0
300,-300,-2777.9,0
300,-300,-2717.62,0
300,-300,-2624.33,0
300,-300,-2500.08,0
300,-300,-2351.39,0
300,-300,-2187.33,0
300,-300,-2019.56,0
300,-300,-1858.94,0
300,-300,-1716.46,0
300,-300,-1598.5,0
300,-300,-1509.09,0
300,-300,-1448.01,0
300,-300,-1410.54,0
300,-300,-1388.94,0
300,-300,-1373.46,0
300,-300,-1354.07,0
300,-300,-1321.7,0
300,-300,-1271.8,0
300,-300,-1198.78,0
300,-300,-1103.61,0
300,-300,-991.52,0
300,-300,-865.62,0
300,-300,-734.21,0
300,-300,-604.41,0
300,-300,-482.89,0
300,-300,-374.03,0
300,-300,-280.66,0
300,-300,-204.01,0
300,-300,-142.57,0
300,-300,-94.58,0
300,-300,-61.08,0
300,-300,-39.34,0
300,-300,-31.14,0
300,-300,-39.87,0
300,-300,-69.26,0
300,-300,-124.01,0
300,-300,-208.81,0
300,-300,-327.33,0
300,-300,-479.57,0
300,-300,-664.63,0
300,-300,-877.8,0
300,-300,-1112.35,0
300,-300,-1359.66,0
300,-300,-1611.05,0
300,-300,-1857.06,0
300,-300,-2090.47,0
300,-300,-2305.76,0
300,-300,-2500.31,0
300,-300,-2674.21,0
300,-300,-2827.25,0
300,-300,-2962.96,0
300,-300,-3083.6,0
300,-300,-3190.88,0
300,-300,-3285.06,0
300,-300,-3364.87,0
300,-300,-3427.3,0
300,-300,-3469.15,0
300,-300,-3487.67,0
300,-300,-3480.32,0
300,-300,-3445.43,0
300,-300,-3386.65,0
300,-300,-3308.74,0
300,-300,-3218.77,0
300,-300,-3125.91,0
300,-300,-3040.14,0
300,-300,-2970.22,0
300,-300,-2924.39,0
300,-300,-2905.28,0
300,-300,-2912.75,0
300,-300,-2942.27,0
300,-300,-2986.19,0
300,-300,-3033.39,0
300,-300,-3071.99,0
300,-300,-3091.03,0
300,-300,-3080.73,0
300,-300,-3035.22,0
300,-300,-2952.2,0
300,-300,-2835.49,0
300,-300,-2691.84,0
300,-300,-2530.81,0
300,-300,-2364.03,0
300,-300,-2203.62,0
300,-300,-2059.85,0
300,-300,-1940.09,0
300,-300,-1848.3,0
300,-300,-1783.86,0
300,-300,-1743.42,0
300,-300,-1719.06,0
300,-300,-1700.36,0
300,-300,-1685.23,0
300,-300,-1657.54,0
300,-300,-1611.98,0
300,-300,-1546.05,0
300,-300,-1459.08,0
300,-300,-1353.71,0
300,-300,-1234.69,0
300,-300,-1109.03,0
300,-300,-981.99,0
300,-300,-860.62,0
300,-300,-749.08,0
300,-300,-651.43,0
300,-300,-569.14,0
300,-300,-502.38,0
300,-300,-449.8,0
300,-300,-410.15,0
300,-300,-382.1,0
300,-300,-366.72,0
300,-300,-364.64,0
300,-300,-376.16,0
300,-300,-406.31,0
300,-300,-458.26,0
300,-300,-534.84,0
300,-300,-638.77,0
300,-300,-770.26,0
300,-300,-928.19,0
300,-300,-1109.52,0
300,-300,-1309.49,0
300,-300,-1521.22,0
300,-300,-1737.01,0
300,-300,-1950.35,0
300,-300,-2154.94,0
300,-300,-2345.46,0
300,-300,-2518.9,0
300,-300,-2673.45,0
300,-300,-2809.05,0
300,-300,-2926.71,0
300,-300,-3027.38,0
300,-300,-3111.93,0
300,-300,-3179.57,0
300,-300,-3230.36,0
300,-300,-3262.81,0
300,-300,-3274.34,0
300,-300,-3263.62,0
300,-300,-3229.63,0
300,-300,-3173.11,0
300,-300,-3096.35,0
300,-300,-3004.84,0
300,-300,-2903.63,0
300,-300,-2800.04,0
300,-300,-2700.97,0
300,-300,-2613.28,0
300,-300,-2540.9,0
300,-300,-2485.26,0
300,-300,-2444.35,0
300,-300,-2413.27,0
300,-300,-2384.6,0
300,-300,-2341.86,0
300,-300,-2282.09,0
300,-300,-2193.98,0
300,-300,-2072.48,0
300,-300,-1915.79,0
300,-300,-1726.27,0
300,-300,-1510.36,0
300,-300,-1278.7,0
300,-300,-1043.93,0
300,-300,-819.26,0
300,-300,-615.81,0
300,-300,-443.49,0
300,-300,-308.23,0
300,-300,-211.09,0
300,-300,-148.66,0
300,-300,-113.34,0
300,-300,-95.52,0
300,-300,-84.02,0
300,-300,-68.5,0
300,-300,-39.84,0
300,-300,8.25,0
300,-300,76.2,0
300,-300,164.67,0
300,-300,269.13,0
300,-300,383.16,0
300,-300,499.94,0
300,-300,612.28,0
300,-300,714.68,0
300,-300,803.24,0
300,-300,876.33,0
300,-300,931.91,0
300,-300,971.92,0
300,-300,996,0
300,-300,1005.53,0
300,-300,999.65,0
300,-300,977.28,0
300,-300,934.8,0
300,-300,869.06,0
300,-300,776.23,0
300,-300,652.56,0
300,-300,496.46,0
300,-300,309.38,0
300,-300,92.2,0
300,-300,-149.85,0
300,-300,-410.18,0
300,-300,-681.31,0
300,-300,-955.28,0
300,-300,-1224.58,0
300,-300,-1483.97,0
300,-300,-1729.98,0
300,-300,-1959.7,0
300,-300,-2172.1,0
300,-300,-2368.26,0
300,-300,-2549.76,0
300,-300,-2716.89,0
300,-300,-2869.2,0
300,-300,-3005.28,0
300,-300,-3121.7,0
300,-300,-3216.05,0
300,-300,-3285.53,0
300,-300,-3326.6,0
300,-300,-3338.54,0
300,-300,-3323.56,0
300,-300,-3285.12,0
300,-300,-3230.28,0
300,-300,-3166.8,0
300,-300,-3104.23,0
300,-300,-3051.56,0
300,-300,-3016.86,0
300,-300,-3004.18,0
300,-300,-3015.24,0
300,-300,-3046.44,0
300,-300,-3091.36,0
300,-300,-3140.42,0
300,-300,-3182.5,0
300,-300,-3205.58,0
300,-300,-3200.75,0
300,-300,-3160.47,0
300,-300,-3082.15,0
300,-300,-2965.14,0
300,-300,-2818.72,0
300,-300,-2649.36,0
300,-300,-2470.02,0
300,-300,-2291.72,0
300,-300,-2125.71,0
300,-300,-1980.29,0
300,-300,-1860.84,0
300,-300,-1767.92,0
300,-300,-1697.41,0
300,-300,-1645.28,0
300,-300,-1600.47,0
300,-300,-1560.93,0
300,-300,-1512.01,0
300,-300,-1447.98,0
300,-300,-1365.22,0
300,-300,-1263.8,0
300,-300,-1146.01,0
300,-300,-1016.54,0
300,-300,-880.78,0
300,-300,-744.97,0
300,-300,-614.7,0
300,-300,-495.96,0
300,-300,-390.42,0
300,-300,-299.93,0
300,-300,-225.02,0
300,-300,-164.81,0
300,-300,-118.92,0
300,-300,-86.36,0
300,-300,-69.3,0
300,-300,-67.34,0
300,-300,-84.38,0
300,-300,-123.82,0
300,-300,-188.21,0
300,-300,-280.5,0
300,-300,-402.13,0
300,-300,-552.22,0
300,-300,-728.69,0
300,-300,-926.61,0
300,-300,-1141.15,0
300,-300,-1363.39,0
300,-300,-1587.67,0
300,-300,-1806.07,0
300,-300,-2013.8,0
300,-300,-2207.02,0
300,-300,-2383.7,0
300,-300,-2543.37,0
300,-300,-2687.15,0
300,-300,-2815.61,0
300,-300,-2930.18,0
300,-300,-3031.46,0
300,-300,-3117.97,0
300,-300,-3188.17,0
300,-300,-3240.08,0
300,-300,-3270.38,0
300,-300,-3277.25,0
300,-300,-3259.79,0
300,-300,-3219.17,0
300,-300,-3158.43,0
300,-300,-3083.3,0
300,-300,-3001.94,0
300,-300,-2920.76,0
300,-300,-2849.29,0
300,-300,-2794.07,0
300,-300,-2759.85,0
300,-300,-2748.45,0
300,-300,-2758.7,0
300,-300,-2785.87,0
300,-300,-2817.37,0
300,-300,-2847.19,0
300,-300,-2862.8,0
300,-300,-2853.22,0
300,-300,-2811.81,0
300,-300,-2733.41,0
300,-300,-2617.16,0
300,-300,-2466.96,0
300,-300,-2289.65,0
300,-300,-2096.16,0
300,-300,-1899.07,0
300,-300,-1710,0
300,-300,-1539.97,0
300,-300,-1397.72,0
300,-300,-1287.81,0
300,-300,-1211.35,0
300,-300,-1164.97,0
300,-300,-1141.66,0
300,-300,-1132.5,0
300,-300,-1127.67,0
300,-300,-1118.39,0
300,-300,-1095.69,0
300,-300,-1054.3,0
300,-300,-993.83,0
300,-300,-912.36,0
300,-300,-814.12,0
300,-300,-704.63,0
300,-300,-590.72,0
300,-300,-478.28,0
300,-300,-373.23,0
300,-300,-280.02,0
300,-300,-200.28,0
300,-300,-137.01,0
300,-300,-87.89,0
300,-300,-52.54,0
300,-300,-30.37,0
300,-300,-20.94,0
300,-300,-25.34,0
300,-300,-45.72,0
300,-300,-84.81,0
300,-300,-147.2,0
300,-300,-235.77,0
300,-300,-353.38,0
300,-300,-500.97,0
300,-300,-677.37,0
300,-300,-879.63,0
300,-300,-1102.17,0
300,-300,-1337.96,0
300,-300,-1578.41,0
300,-300,-1816.65,0
300,-300,-2045.01,0
300,-300,-2259.14,0
300,-300,-2453.52,0
300,-300,-2628.94,0
300,-300,-2784.72,0
300,-300,-2922.53,0
300,-300,-3043.75,0
300,-300,-3149.95,0
300,-300,-3241.11,0
300,-300,-3317.59,0
300,-300,-3376.38,0
300,-300,-3415.37,0
300,-300,-3430.33,0
300,-300,-3421.43,0
300,-300,-3386.98,0
300,-300,-3329.19,0
300,-300,-3252.25,0
300,-300,-3162.37,0
300,-300,-3067.92,0
300,-300,-2979.62,0
300,-300,-2904.11,0
300,-300,-2849.38,0
300,-300,-2820.05,0
300,-300,-2816.72,0
300,-300,-2837.06,0
300,-300,-2874.9,0
300,-300,-2920.64,0
300,-300,-2963.34,0
300,-300,-2991.43,0
300,-300,-2988.92,0
300,-300,-2952.26,0
300,-300,-2875.94,0
300,-300,-2759.19,0
300,-300,-2605.79,0
300,-300,-2424.48,0
300,-300,-2226.66,0
300,-300,-2024.82,0
300,-300,-1832.67,0
300,-300,-1661.48,0
300,-300,-1520.78,0
300,-300,-1413.8,0
300,-300,-1345.9,0
300,-300,-1309.84,0
300,-300,-1299.06,0
300,-300,-1303.66,0
300,-300,-1312.95,0
300,-300,-1316.27,0
300,-300,-1304.61,0
300,-300,-1271.07,0
300,-300,-1212.49,0
300,-300,-1129.33,0
300,-300,-1023.61,0
300,-300,-901.71,0
300,-300,-770.56,0
300,-300,-637.62,0
300,-300,-509.76,0
300,-300,-392.34,0
300,-300,-289.14,0
300,-300,-202.21,0
300,-300,-131.69,0
300,-300,-77.24,0
300,-300,-36.25,0
300,-300,-9.31,0
300,-300,3.85,0
300,-300,2.28,0
300,-300,-16.43,0
300,-300,-55.08,0
300,-300,-116.79,0
300,-300,-204.46,0
300,-300,-318.76,0
300,-300,-459.58,0
300,-300,-623.53,0
300,-300,-806.58,0
300,-300,-1001.73,0
300,-300,-1201.5,0
300,-300,-1398.79,0
300,-300,-1586.35,0
300,-300,-1759.6,0
300,-300,-1915.65,0
300,-300,-2052.62,0
300,-300,-2172.12,0
300,-300,-2274.89,0
300,-300,-2363.37,0
300,-300,-2439.84,0
300,-300,-2504.84,0
300,-300,-2557.87,0
300,-300,-2596.7,0
300,-300,-2618.6,0
300,-300,-2621.87,0
300,-300,-2603.46,0
300,-300,-2563.28,0
300,-300,-2502.93,0
300,-300,-2426.41,0
300,-300,-2340.82,0
300,-300,-2253.37,0
300,-300,-2173.44,0
300,-300,-2108.62,0
300,-300,-2064.74,0
300,-300,-2037.83,0
300,-300,-2032.82,0
300,-300,-2042,0
300,-300,-2058.18,0
300,-300,-2072.59,0
300,-300,-2076.02,0
300,-300,-2060.23,0
300,-300,-2020.32,0
300,-300,-1954.69,0
300,-300,-1865.79,0
300,-300,-1758.85,0
300,-300,-1643.47,0
300,-300,-1526.59,0
300,-300,-1418.72,0
300,-300,-1326.41,0
300,-300,-1253.13,0
300,-300,-1199.36,0
300,-300,-1161.71,0
300,-300,-1134.34,0
300,-300,-1110.42,0
300,-300,-1081.76,0
300,-300,-1039.99,0
300,-300,-985.31,0
300,-300,-911.22,0
300,-300,-818.53,0
300,-300,-712.07,0
300,-300,-597.63,0
300,-300,-482.39,0
300,-300,-372.2,0
300,-300,-273.61,0
300,-300,-189.3,0
300,-300,-121.61,0
300,-300,-70.29,0
300,-300,-35.05,0
300,-300,-14.51,0
300,-300,-8.21,0
300,-300,-15.89,0
300,-300,-39.02,0
300,-300,-80.06,0
300,-300,-142.96,0
300,-300,-229.61,0
300,-300,-342.79,0
300,-300,-483.85,0
300,-300,-650.81,0
300,-300,-840.93,0
300,-300,-1048.68,0
300,-300,-1267.29,0
300,-300,-1488.9,0
300,-300,-1706.61,0
300,-300,-1914.51,0
300,-300,-2107.21,0
300,-300,-2281.83,0
300,-300,-2437.18,0
300,-300,-2571.86,0
300,-300,-2685.37,0
300,-300,-2775.43,0
300,-300,-2836.57,0
300,-300,-2599.48,0
300,-300,-1832.55,0
300,-300,0,0
300,-300,0,0
300,-300,0,0
300,-300,0,0
300,-300,0,0
300,-300,0,0
300,-300,0,0
300,-300,0,0
300,-300,0,0
300,-300,0,0
300,-300,0,0
300,-300,0,0
300,-300,0,0
300,-300,0,0
300,-300,0,0
300,-300,0,0
300,-300,0,0
300,-300,0,0
300,-300,0,0
300,-300,0,0
300,-300,0,0
300,-300,0,0
300,-300,0,0
300,-300,0,0
300,-300,0,0
300,-300,-1224.75,0
300,-300,-1117.78,0
300,-300,-987.99,0
300,-300,-838.05,0
300,-300,-672.04,0
300,-300,-501.02,0
300,-300,-329.64,0
300,-300,-167.24,0
300,-300,-21.3,0
300,-300,102.71,0
300,-300,202.03,0
300,-300,277.08,0
300,-300,328.52,0
300,-300,358.31,0
300,-300,368.95,0
300,-300,360.53,0
300,-300,332.84,0
300,-300,284.01,0
300,-300,210.87,0
300,-300,109.36,0
300,-300,-23.29,0
300,-300,-188.86,0
300,-300,-386.25,0
300,-300,-613.79,0
300,-300,-865.03,0
300,-300,-1131.76,0
300,-300,-1406.4,0
300,-300,-1679.86,0
300,-300,-1943.84,0
300,-300,-2192.29,0
300,-300,-2420.84,0
300,-300,-2627.26,0
300,-300,-2811.44,0
300,-300,-2975.26,0
300,-300,-3118.68,0
300,-300,-3242.82,0
300,-300,-3347.65,0
300,-300,-3432.15,0
300,-300,-3493.65,0
300,-300,-3529.05,0
300,-300,-3535.59,0
300,-300,-3511.4,0
300,-300,-3457.06,0
300,-300,-3376.4,0
300,-300,-3274.05,0
300,-300,-3158.26,0
300,-300,-3037.84,0
300,-300,-2923.1,0
300,-300,-2821.69,0
300,-300,-2739.09,0
300,-300,-2677.77,0
300,-300,-2636.18,0
300,-300,-2609.18,0
300,-300,-2582.7,0
300,-300,-2553.62,0
300,-300,-2511.11,0
300,-300,-2447.52,0
300,-300,-2359.37,0
300,-300,-2246.33,0
300,-300,-2112.33,0
300,-300,-1965.03,0
300,-300,-1814.29,0
300,-300,-1670.47,0
300,-300,-1542.03,0
300,-300,-1434.96,0
300,-300,-1353.24,0
300,-300,-1294.84,0
300,-300,-1254.76,0
300,-300,-1224.4,0
300,-300,-1194.52,0
300,-300,-1154.56,0
300,-300,-1096.51,0
300,-300,-1015.52,0
300,-300,-908.66,0
300,-300,-782.7,0
300,-300,-638.3,0
300,-300,-484.22,0
300,-300,-329.78,0
300,-300,-184.3,0
300,-300,-54.6,0
300,-300,54.04,0
300,-300,138.99,0
300,-300,198.89,0
300,-300,235.85,0
300,-300,250.1,0
300,-300,244.11,0
300,-300,218.25,0
300,-300,171.23,0
300,-300,101.81,0
300,-300,6.79,0
300,-300,-116.03,0
300,-300,-268.69,0
300,-300,-452.75,0
300,-300,-664.98,0
300,-300,-901.43,0
300,-300,-1155.91,0
300,-300,-1420.56,0
300,-300,-1686.79,0
300,-300,-1945.88,0
300,-300,-2191.4,0
300,-300,-2417.35,0
300,-300,-2620.42,0
300,-300,-2800.65,0
300,-300,-2958.06,0
300,-300,-3094.48,0
300,-300,-3212.26,0
300,-300,-3313.12,0
300,-300,-3397.04,0
300,-300,-3463.25,0
300,-300,-3509.51,0
300,-300,-3532.13,0
300,-300,-3527.5,0
300,-300,-3485.17,0
300,-300,-3409.36,0
300,-300,-3296.59,0
300,-300,-3150.76,0
300,-300,-2978.11,0
300,-300,-2788.21,0
300,-300,-2592.25,0
300,-300,-2404,0
300,-300,-2235.31,0
300,-300,-2098.06,0
300,-300,-1999.73,0
300,-300,-1945.11,0
300,-300,-1931.74,0
300,-300,-1955.48,0
300,-300,-2005.77,0
300,-300,-2069.52,0
300,-300,-2131.93,0
300,-300,-2178.19,0
300,-300,-2194.98,0
300,-300,-2171.86,0
300,-300,-2103.84,0
300,-300,-1988.24,0
300,-300,-1827.33,0
300,-300,-1629.06,0
300,-300,-1402.68,0
300,-300,-1160.1,0
300,-300,-912.84,0
300,-300,-672.99,0
300,-300,-449.76,0
300,-300,-250.43,0
300,-300,-80.31,0
300,-300,60.66,0
300,-300,165.49,0
300,-300,241.38,0
300,-300,289.07,0
300,-300,308.57,0
300,-300,300.13,0
300,-300,263.97,0
300,-300,199.52,0
300,-300,106.07,0
300,-300,-17.77,0
300,-300,-169.61,0
300,-300,-349.27,0
300,-300,-552.36,0
300,-300,-774.45,0
300,-300,-1009.43,0
300,-300,-1250.18,0
300,-300,-1489.77,0
300,-300,-1721.12,0
300,-300,-1939.46,0
300,-300,-2141.27,0
300,-300,-2325.01,0
300,-300,-2489.8,0
300,-300,-2637.66,0
300,-300,-2770.05,0
300,-300,-2888.88,0
300,-300,-2995.23,0
300,-300,-3088.96,0
300,-300,-3168.45,0
300,-300,-3230.66,0
300,-300,-3265.05,0
300,-300,-3269.82,0
300,-300,-3239.18,0
300,-300,-3169.53,0
300,-300,-3060.45,0
300,-300,-2915.19,0
300,-300,-2740.41,0
300,-300,-2546.95,0
300,-300,-2347.57,0
300,-300,-2156.22,0
300,-300,-1988.07,0
300,-300,-1853.17,0
300,-300,-1761.17,0
300,-300,-1715.63,0
300,-300,-1714.07,0
300,-300,-1749.42,0
300,-300,-1809.73,0
300,-300,-1880.74,0
300,-300,-1945.39,0
300,-300,-1989.49,0
300,-300,-1999.05,0
300,-300,-1964.21,0
300,-300,-1880.85,0
300,-300,-1748.98,0
300,-300,-1573.47,0
300,-300,-1362.78,0
300,-300,-1128.76,0
300,-300,-884.12,0
300,-300,-640.49,0
300,-300,-409.94,0
300,-300,-197.73,0
300,-300,-16.92,0
300,-300,135.86,0
300,-300,258.73,0
300,-300,352.14,0
300,-300,416.97,0
300,-300,454.03,0
300,-300,463.49,0
300,-300,444.84,0
300,-300,394.2,0
300,-300,310.96,0
300,-300,191.95,0
300,-300,36.77,0
300,-300,-155.15,0
300,-300,-381.19,0
300,-300,-636.79,0
300,-300,-915.05,0
300,-300,-1208.3,0
300,-300,-1507.43,0
300,-300,-1804.53,0
300,-300,-2092.2,0
300,-300,-2363.72,0
300,-300,-2616,0
300,-300,-2847.31,0
300,-300,-3057,0
300,-300,-3245.99,0
300,-300,-3415.14,0
300,-300,-3565.19,0
300,-300,-3697.08,0
300,-300,-3808.56,0
300,-300,-3897.34,0
300,-300,-3960.2,0
300,-300,-3993.84,0
300,-300,-3995.47,0
300,-300,-3962.69,0
300,-300,-3895.69,0
300,-300,-3796.49,0
300,-300,-3669.69,0
300,-300,-3515.07,0
300,-300,-3347.03,0
300,-300,-3172.61,0
300,-300,-2999.81,0
300,-300,-2838.46,0
300,-300,-2696.01,0
300,-300,-2577.19,0
300,-300,-2485.26,0
300,-300,-2420.38,0
300,-300,-2380.6,0
300,-300,-2360.88,0
300,-300,-2354.52,0
300,-300,-2353.47,0
300,-300,-2349.05,0
300,-300,-2331.82,0
300,-300,-2294.99,0
300,-300,-2231.5,0
300,-300,-2137.41,0
300,-300,-2010.61,0
300,-300,-1851.97,0
300,-300,-1665.77,0
300,-300,-1456.98,0
300,-300,-1230.8,0
300,-300,-1001.85,0
300,-300,-772.79,0
300,-300,-552.56,0
300,-300,-347.49,0
300,-300,-162.39,0
300,-300,-0.57,0
300,-300,136.2,0
300,-300,247,0
300,-300,331.52,0
300,-300,389.38,0
300,-300,420.57,0
300,-300,423.64,0
300,-300,395.86,0
300,-300,335.55,0
300,-300,239.66,0
300,-300,107.27,0
300,-300,-63.27,0
300,-300,-268.36,0
300,-300,-504.68,0
300,-300,-764.54,0
300,-300,-1040.86,0
300,-300,-1323.81,0
300,-300,-1604.71,0
300,-300,-1874.52,0
300,-300,-2127.41,0
300,-300,-2358.59,0
300,-300,-2567.45,0
300,-300,-2752.92,0
300,-300,-2918.19,0
300,-300,-3064.34,0
300,-300,-3195.03,0
300,-300,-3310,0
300,-300,-3409.1,0
300,-300,-3489.12,0
300,-300,-3545.97,0
300,-300,-3574.19,0
300,-300,-3562.57,0
300,-300,-3510.29,0
300,-300,-3414.73,0
300,-300,-3274.95,0
300,-300,-3098.01,0
300,-300,-2892.45,0
300,-300,-2671.27,0
300,-300,-2448.95,0
300,-300,-2240.19,0
300,-300,-2059.22,0
300,-300,-1917.48,0
300,-300,-1820.32,0
300,-300,-1769.99,0
300,-300,-1761.36,0
300,-300,-1785.88,0
300,-300,-1830.51,0
300,-300,-1880.76,0
300,-300,-1920.5,0
300,-300,-1936.4,0
300,-300,-1917.07,0
300,-300,-1857.37,0
300,-300,-1754.68,0
300,-300,-1610.35,0
300,-300,-1431.92,0
300,-300,-1228.85,0
300,-300,-1011.02,0
300,-300,-789.13,0
300,-300,-573.11,0
300,-300,-370.46,0
300,-300,-186.95,0
300,-300,-25.66,0
300,-300,113.32,0
300,-300,224.31,0
300,-300,313.67,0
300,-300,380.34,0
300,-300,423.35,0
300,-300,440.1,0
300,-300,428.22,0
300,-300,384.74,0
300,-300,306.27,0
300,-300,191.76,0
300,-300,41.21,0
300,-300,-143.51,0
300,-300,-358.79,0
300,-300,-598.18,0
300,-300,-853.62,0
300,-300,-1117.28,0
300,-300,-1380.24,0
300,-300,-1635.13,0
300,-300,-1876.97,0
300,-300,-2100.51,0
300,-300,-2305.06,0
300,-300,-2489.52,0
300,-300,-2655.8,0
300,-300,-2806.72,0
300,-300,-2942.92,0
300,-300,-3065.87,0
300,-300,-3174.74,0
300,-300,-3267.75,0
300,-300,-3343.94,0
300,-300,-3397.56,0
300,-300,-3425.85,0
300,-300,-3425.07,0
300,-300,-3393.18,0
300,-300,-3330.55,0
300,-300,-3239.04,0
300,-300,-3122.86,0
300,-300,-2987.67,0
300,-300,-2841.42,0
300,-300,-2686.34,0
300,-300,-2537.03,0
300,-300,-2396.71,0
300,-300,-2272.82,0
300,-300,-2168.63,0
300,-300,-2087.24,0
300,-300,-2027.66,0
300,-300,-1989.09,0
300,-300,-1967.18,0
300,-300,-1958.24,0
300,-300,-1953.21,0
300,-300,-1948.77,0
300,-300,-1935.73,0
300,-300,-1909.15,0
300,-300,-1862.55,0
300,-300,-1792.5,0
300,-300,-1695.87,0
300,-300,-1572.99,0
300,-300,-1424.94,0
300,-300,-1257.39,0
300,-300,-1074.7,0
300,-300,-882.8,0
300,-300,-693.71,0
300,-300,-511.01,0
300,-300,-340.21,0
300,-300,-186.9,0
300,-300,-53.57,0
300,-300,57.81,0
300,-300,147.15,0
300,-300,213.89,0
300,-300,260.16,0
300,-300,285.54,0
300,-300,290.8,0
300,-300,272.61,0
300,-300,229.81,0
300,-300,158.47,0
300,-300,56.53,0
300,-300,-78.55,0
300,-300,-247.13,0
300,-300,-449.22,0
300,-300,-679.12,0
300,-300,-932.72,0
300,-300,-1200.75,0
300,-300,-1476.2,0
300,-300,-1750.82,0
300,-300,-2016.88,0
300,-300,-2268.58,0
300,-300,-2501.81,0
300,-300,-2714.75,0
300,-300,-2907.92,0
300,-300,-3081.21,0
300,-300,-3235.56,0
300,-300,-3371.74,0
300,-300,-3488.28,0
300,-300,-3583.7,0
300,-300,-3654.94,0
300,-300,-3698.3,0
300,-300,-3710.92,0
300,-300,-3690.65,0
300,-300,-3639.05,0
300,-300,-3559.3,0
300,-300,-3455.81,0
300,-300,-3336.2,0
300,-300,-3209.05,0
300,-300,-3082.71,0
300,-300,-2964.02,0
300,-300,-2858.11,0
300,-300,-2767.16,0
300,-300,-2690.41,0
300,-300,-2620.91,0
300,-300,-2559.09,0
300,-300,-2496.2,0
300,-300,-2429.33,0
300,-300,-2354.48,0
300,-300,-2270.75,0
300,-300,-2179.44,0
300,-300,-2083.51,0
300,-300,-1987.43,0
300,-300,-1895.53,0
300,-300,-1810.35,0
300,-300,-1734.99,0
300,-300,-1666.47,0
300,-300,-1603.9,0
300,-300,-1541.73,0
300,-300,-1473.82,0
300,-300,-1394.29,0
300,-300,-1298.36,0
300,-300,-1182.85,0
300,-300,-1047.54,0
300,-300,-895.41,0
300,-300,-729.3,0
300,-300,-561.46,0
300,-300,-393.67,0
300,-300,-235.01,0
300,-300,-91.48,0
300,-300,31.74,0
300,-300,132.68,0
300,-300,210.46,0
300,-300,266.26,0
300,-300,299.9,0
300,-300,314.65,0
300,-300,307.73,0
300,-300,280.83,0
300,-300,231.34,0
300,-300,156.74,0
300,-300,54.74,0
300,-300,-75.93,0
300,-300,-235.36,0
300,-300,-421.17,0
300,-300,-630.4,0
300,-300,-855.72,0
300,-300,-1091.08,0
300,-300,-1328.72,0
300,-300,-1562.26,0
300,-300,-1785.13,0
300,-300,-1993.55,0
300,-300,-2185.11,0
300,-300,-2359.14,0
300,-300,-2516.23,0
300,-300,-2658.06,0
300,-300,-2783.96,0
300,-300,-2895.41,0
300,-300,-2990.89,0
300,-300,-3068.8,0
300,-300,-3125.74,0
300,-300,-3159.43,0
300,-300,-3167.52,0
300,-300,-3149.71,0
300,-300,-3105.78,0
300,-300,-3038.65,0
300,-300,-2950.65,0
300,-300,-2849.2,0
300,-300,-2739.38,0
300,-300,-2627.97,0
300,-300,-2519.99,0
300,-300,-2419.91,0
300,-300,-2330.67,0
300,-300,-2253.85,0
300,-300,-2188.63,0
300,-300,-2135.05,0
300,-300,-2089.74,0
300,-300,-2051.52,0
300,-300,-2018.07,0
300,-300,-1986.88,0
300,-300,-1955.67,0
300,-300,-1922.64,0
300,-300,-1885.01,0
300,-300,-1840.51,0
300,-300,-1786.49,0
300,-300,-1720.15,0
300,-300,-1638.85,0
300,-300,-1540.67,0
300,-300,-1424.69,0
300,-300,-1292.1,0
300,-300,-1143.92,0
300,-300,-984.04,0
300,-300,-816.8,0
300,-300,-647.9,0
300,-300,-482.71,0
300,-300,-326.78,0
300,-300,-188.14,0
300,-300,-66.16,0
300,-300,36.22,0
300,-300,117.63,0
300,-300,177.71,0
300,-300,217.11,0
300,-300,236.35,0
300,-300,235.17,0
300,-300,212.47,0
300,-300,166.17,0
300,-300,93.63,0
300,-300,-7.11,0
300,-300,-138.27,0
300,-300,-300.05,0
300,-300,-491.64,0
300,-300,-709.94,0
300,-300,-949.98,0
300,-300,-1206.11,0
300,-300,-1470.25,0
300,-300,-1735.23,0
300,-300,-1994.07,0
300,-300,-2241.72,0
300,-300,-2474.57,0
300,-300,-2690.06,0
300,-300,-2887.45,0
300,-300,-3066.99,0
300,-300,-3228.95,0
300,-300,-3374.44,0
300,-300,-3500.73,0
300,-300,-3607.22,0
300,-300,-3689.57,0
300,-300,-3746.27,0
300,-300,-3774.64,0
300,-300,-3773.13,0
300,-300,-3741.93,0
300,-300,-3684.1,0
300,-300,-3604.96,0
300,-300,-3513.57,0
300,-300,-3416.8,0
300,-300,-3325.23,0
300,-300,-3246.53,0
300,-300,-3187.87,0
300,-300,-3153.41,0
300,-300,-3143.19,0
300,-300,-3153.5,0
300,-300,-3177.2,0
300,-300,-3204.72,0
300,-300,-3216.64,0
300,-300,-3208.53,0
300,-300,-3168.26,0
300,-300,-3089.03,0
300,-300,-2968.35,0
300,-300,-2808.81,0
300,-300,-2617.46,0
300,-300,-2404.62,0
300,-300,-2183.75,0
300,-300,-1968.62,0
300,-300,-1771.7,0
300,-300,-1602.89,0
300,-300,-1468.58,0
300,-300,-1369.71,0
300,-300,-1303.14,0
300,-300,-1260.87,0
300,-300,-1232.23,0
300,-300,-1205.46,0
300,-300,-1168.94,0
300,-300,-1113.78,0
300,-300,-1034.86,0
300,-300,-928.78,0
300,-300,-798.15,0
300,-300,-647.09,0
300,-300,-483.41,0
300,-300,-315.72,0
300,-300,-152.32,0
300,-300,0.24,0
300,-300,136.72,0
300,-300,255.4,0
300,-300,354.48,0
300,-300,435.9,0
300,-300,501.48,0
300,-300,552.01,0
300,-300,587.79,0
300,-300,607.19,0
300,-300,606.31,0
300,-300,580.85,0
300,-300,524.28,0
300,-300,432.5,0
300,-300,299.74,0
300,-300,126.76,0
300,-300,-86.39,0
300,-300,-333.55,0
300,-300,-607.74,0
300,-300,-898.77,0
300,-300,-1196.42,0
300,-300,-1489.89,0
300,-300,-1770.37,0
300,-300,-2031.14,0
300,-300,-2270.13,0
300,-300,-2484.1,0
300,-300,-2675.23,0
300,-300,-2844.6,0
300,-300,-2995.89,0
300,-300,-3129.77,0
300,-300,-3246.18,0
300,-300,-3343.14,0
300,-300,-3417.38,0
300,-300,-3464.41,0
300,-300,-3481.25,0
300,-300,-3464.21,0
300,-300,-3414.35,0
300,-300,-3334.87,0
300,-300,-3232.47,0
300,-300,-3116.12,0
300,-300,-2997.25,0
300,-300,-2887.66,0
300,-300,-2798,0
300,-300,-2736.52,0
300,-300,-2704.04,0
300,-300,-2699.74,0
300,-300,-2717.83,0
300,-300,-2747.14,0
300,-300,-2774.74,0
300,-300,-2786.51,0
300,-300,-2770.45,0
300,-300,-2717.05,0
300,-300,-2622.74,0
300,-300,-2486.76,0
300,-300,-2317.87,0
300,-300,-2123.83,0
300,-300,-1919.89,0
300,-300,-1719.36,0
300,-300,-1534.78,0
300,-300,-1375.8,0
300,-300,-1247.85,0
300,-300,-1151.27,0
300,-300,-1082.65,0
300,-300,-1034.71,0
300,-300,-994.81,0
300,-300,-960.36,0
300,-300,-914.18,0
300,-300,-849.89,0
300,-300,-763.79,0
300,-300,-656.19,0
300,-300,-530.28,0
300,-300,-391.44,0
300,-300,-246.86,0
300,-300,-103.89,0
300,-300,31,0
300,-300,152,0
300,-300,255.96,0
300,-300,340.88,0
300,-300,406.35,0
300,-300,453.02,0
300,-300,481.49,0
300,-300,491.67,0
300,-300,483.04,0
300,-300,452.19,0
300,-300,397.38,0
300,-300,315.77,0
300,-300,204.12,0
300,-300,60,0
300,-300,-116.24,0
300,-300,-322.57,0
300,-300,-554.74,0
300,-300,-806.41,0
300,-300,-1070.41,0
300,-300,-1339.19,0
300,-300,-1605.32,0
300,-300,-1860.89,0
300,-300,-2101.77,0
300,-300,-2324.64,0
300,-300,-2528.26,0
300,-300,-2712.11,0
300,-300,-2877.08,0
300,-300,-3023.66,0
300,-300,-3153.08,0
300,-300,-3264.06,0
300,-300,-3356.67,0
300,-300,-3426.11,0
300,-300,-3472.29,0
300,-300,-3492.28,0
300,-300,-3484.93,0
300,-300,-3450.57,0
300,-300,-3392.54,0
300,-300,-3315.63,0
300,-300,-3227.36,0
300,-300,-3137.33,0
300,-300,-3054.2,0
300,-300,-2984.96,0
300,-300,-2936.79,0
300,-300,-2911.31,0
300,-300,-2907.63,0
300,-300,-2920.02,0
300,-300,-2940.21,0
300,-300,-2957.22,0
300,-300,-2960.05,0
300,-300,-2931.86,0
300,-300,-2871.05,0
300,-300,-2770.81,0
300,-300,-2631.68,0
300,-300,-2458.7,0
300,-300,-2261.3,0
300,-300,-2051.49,0
300,-300,-1842.91,0
300,-300,-1648.67,0
300,-300,-1479.08,0
300,-300,-1340.86,0
300,-300,-1235.2,0
300,-300,-1163.05,0
300,-300,-1115.32,0
300,-300,-1083.14,0
300,-300,-1055.81,0
300,-300,-1022.45,0
300,-300,-974.26,0
300,-300,-905.15,0
300,-300,-813.38,0
300,-300,-700.24,0
300,-300,-571.29,0
300,-300,-431.1,0
300,-300,-288.32,0
300,-300,-149.95,0
300,-300,-22.12,0
300,-300,91.33,0
300,-300,188.64,0
300,-300,270.06,0
300,-300,335.96,0
300,-300,387.46,0
300,-300,424.68,0
300,-300,446.42,0
300,-300,449.75,0
300,-300,429.75,0
300,-300,380.83,0
300,-300,297.31,0
300,-300,174.66,0
300,-300,9.84,0
300,-300,-197.8,0
300,-300,-444.52,0
300,-300,-723.45,0
300,-300,-1026.14,0
300,-300,-1341.53,0
300,-300,-1658.69,0
300,-300,-1966.71,0
300,-300,-2257.66,0
300,-300,-2524.92,0
300,-300,-2765.63,0
300,-300,-2979.96,0
300,-300,-3168.4,0
300,-300,-3332.64,0
300,-300,-3475.61,0
300,-300,-3598.36,0
300,-300,-3700.95,0
300,-300,-3780.64,0
300,-300,-3834.92,0
300,-300,-3859.73,0
300,-300,-3852.27,0
300,-300,-3812.92,0
300,-300,-3741.86,0
300,-300,-3643.91,0
300,-300,-3526.67,0
300,-300,-3400.84,0
300,-300,-3277.45,0
300,-300,-3167.77,0
300,-300,-3081.52,0
300,-300,-3025.17,0
300,-300,-3000.51,0
300,-300,-2998.49,0
300,-300,-3014.59,0
300,-300,-3036.03,0
300,-300,-3048.47,0
300,-300,-3038.88,0
300,-300,-2995.9,0
300,-300,-2912.56,0
300,-300,-2786.93,0
300,-300,-2623.1,0
300,-300,-2429.74,0
300,-300,-2220.56,0
300,-300,-2010.19,0
300,-300,-1811.66,0
300,-300,-1638.25,0
300,-300,-1497.54,0
300,-300,-1392.01,0
300,-300,-1319.43,0
300,-300,-1272.33,0
300,-300,-1239.54,0
300,-300,-1209.27,0
300,-300,-1169.9,0
300,-300,-1110.2,0
300,-300,-1029.26,0
300,-300,-919.49,0
300,-300,-783.88,0
300,-300,-629.21,0
300,-300,-464.13,0
300,-300,-298.3,0
300,-300,-140.05,0
300,-300,3.53,0
300,-300,127.73,0
300,-300,230.44,0
300,-300,311.61,0
300,-300,372.64,0
300,-300,416.3,0
300,-300,443.88,0
300,-300,455.76,0
300,-300,451.1,0
300,-300,427.11,0
300,-300,378.44,0
300,-300,302.37,0
300,-300,194.76,0
300,-300,53.98,0
300,-300,-120.32,0
300,-300,-325.42,0
300,-300,-555.6,0
300,-300,-803.52,0
300,-300,-1060.03,0
300,-300,-1316.35,0
300,-300,-1566.05,0
300,-300,-1800.6,0
300,-300,-2017.02,0
300,-300,-2213.21,0
300,-300,-2388.71,0
300,-300,-2545.55,0
300,-300,-2685.42,0
300,-300,-2809.91,0
300,-300,-2919.63,0
