Tran,San,Gia_tri_PPG,Truc_0
300.0,-300.0,0.0,0.0
300.0,-300.0,0.0,0.0
300.0,-300.0,0.0,0.0
300.0,-300.0,0.0,0.0
300.0,-300.0,0.0,0.0
300.0,-300.0,0.0,0.0
300.0,-300.0,0.0,0.0
300.0,-300.0,0.0,0.0
300.0,-300.0,0.0,0.0
300.0,-300.0,0.0,0.0
300.0,-300.0,0.0,0.0
300.0,-300.0,0.0,0.0
300.0,-300.0,0.0,0.0
300.0,-300.0,0.0,0.0
300.0,-300.0,0.0,0.0
300.0,-300.0,0.0,0.0
300.0,-300.0,0.0,0.0
300.0,-300.0,0.0,0.0
300.0,-300.0,0.0,0.0
300.0,-300.0,0.0,0.0
300.0,-300.0,0.0,0.0
300.0,-300.0,0.0,0.0
300.0,-300.0,0.0,0.0
300.0,-300.0,0.0,0.0
300.0,-300.0,0.0,0.0
300.0,-300.0,0.0,0.0
300.0,-300.0,0.0,0.0
300.0,-300.0,0.0,0.0
300.0,-300.0,0.0,0.0
300.0,-300.0,0.0,0.0
300.0,-300.0,0.0,0.0
300.0,-300.0,0.0,0.0
300.0,-300.0,0.0,0.0
300.0,-300.0,0.0,0.0
300.0,-300.0,0.0,0.0
300.0,-300.0,0.0,0.0
300.0,-300.0,0.0,0.0
300.0,-300.0,0.0,0.0
300.0,-300.0,0.0,0.0
300.0,-300.0,0.0,0.0
300.0,-300.0,0.0,0.0
300.0,-300.0,0.0,0.0
300.0,-300.0,0.0,0.0
300.0,-300.0,0.0,0.0
300.0,-300.0,0.0,0.0
300.0,-300.0,0.0,0.0
300.0,-300.0,0.0,0.0
300.0,-300.0,0.0,0.0
300.0,-300.0,0.0,0.0
300.0,-300.0,-475.63,0.0
300.0,-300.0,-1062.34,0.0
300.0,-300.0,-1942.18,0.0
300.0,-300.0,-3144.97,0.0
300.0,-300.0,-4671.32,0.0
300.0,-300.0,-6475.09,0.0
300.0,-300.0,-8472.53,0.0
300.0,-300.0,-10549.84,0.0
300.0,-300.0,-12568.91,0.0
300.0,-300.0,-14396.56,0.0
300.0,-300.0,-16069.6,0.0
300.0,-300.0,-17381.58,0.0
300.0,-300.0,-18323.27,0.0
300.0,-300.0,-18905.33,0.0
300.0,-300.0,-19177.83,0.0
300.0,-300.0,-19225.09,0.0
300.0,-300.0,-19154.93,0.0
300.0,-300.0,-19079.07,0.0
300.0,-300.0,-19099.84,0.0
300.0,-300.0,-19310.41,0.0
300.0,-300.0,-19875.07,0.0
300.0,-300.0,-20788.32,0.0
300.0,-300.0,-22102.11,0.0
300.0,-300.0,-23826.29,0.0
300.0,-300.0,-25975.25,0.0
300.0,-300.0,-28542.71,0.0
300.0,-300.0,-31558.05,0.0
300.0,-300.0,-34941.75,0.0
300.0,-300.0,-38601.84,0.0
300.0,-300.0,-42468.86,0.0
300.0,-300.0,-46447.64,0.0
300.0,-300.0,-50378.77,0.0
300.0,-300.0,-54094.81,0.0
300.0,-300.0,-57407.5,0.0
300.0,-300.0,-60123.45,0.0
300.0,-300.0,-62072.11,0.0
300.0,-300.0,-63115.73,0.0
300.0,-300.0,-63173.64,0.0
300.0,-300.0,-62233.98,0.0
300.0,-300.0,-60361.15,0.0
300.0,-300.0,-57728.35,0.0
300.0,-300.0,-54494.74,0.0
300.0,-300.0,-50896.61,0.0
300.0,-300.0,-47162.64,0.0
300.0,-300.0,-43497.51,0.0
300.0,-300.0,-40056.55,0.0
300.0,-300.0,-36929.71,0.0
300.0,-300.0,-34137.79,0.0
300.0,-300.0,-31637.3,0.0
300.0,-300.0,-29339.5,0.0
300.0,-300.0,-27151.03,0.0
300.0,-300.0,-24952.02,0.0
300.0,-300.0,-22672.39,0.0
300.0,-300.0,-20283.11,0.0
300.0,-300.0,-17807.81,0.0
300.0,-300.0,-15317.75,0.0
300.0,-300.0,-12916.98,0.0
300.0,-300.0,-10719.56,0.0
300.0,-300.0,-8823.65,0.0
300.0,-300.0,-7292.2,0.0
300.0,-300.0,-6124.51,0.0
300.0,-300.0,-5261.08,0.0
300.0,-300.0,-4582.12,0.0
300.0,-300.0,-3923.8,0.0
300.0,-300.0,-3101.27,0.0
300.0,-300.0,-1936.63,0.0
300.0,-300.0,-283.87,0.0
300.0,-300.0,1948.9,0.0
300.0,-300.0,4788.56,0.0
300.0,-300.0,8187.99,0.0
300.0,-300.0,12056.18,0.0
300.0,-300.0,16252.75,0.0
300.0,-300.0,20620.98,0.0
300.0,-300.0,25006.31,0.0
300.0,-300.0,29273.84,0.0
300.0,-300.0,33317.73,0.0
300.0,-300.0,37065.49,0.0
300.0,-300.0,40471.66,0.0
300.0,-300.0,43506.91,0.0
300.0,-300.0,46143.9,0.0
300.0,-300.0,48351.27,0.0
300.0,-300.0,50082.56,0.0
300.0,-300.0,51279.68,0.0
300.0,-300.0,51879.71,0.0
300.0,-300.0,51829.49,0.0
300.0,-300.0,51101.05,0.0
300.0,-300.0,49709.57,0.0
300.0,-300.0,47721.37,0.0
300.0,-300.0,45260.32,0.0
300.0,-300.0,42499.42,0.0
300.0,-300.0,39510.93,0.0
300.0,-300.0,36945.08,0.0
300.0,-300.0,34597.16,0.0
300.0,-300.0,32679.9,0.0
300.0,-300.0,31332.6,0.0
300.0,-300.0,30608.27,0.0
300.0,-300.0,30459.6,0.0
300.0,-300.0,30758.83,0.0
300.0,-300.0,31325.22,0.0
300.0,-300.0,31946.56,0.0
300.0,-300.0,32374.32,0.0
300.0,-300.0,32577.91,0.0
300.0,-300.0,32310.64,0.0
300.0,-300.0,31517.68,0.0
300.0,-300.0,30227.06,0.0
300.0,-300.0,28523.78,0.0
300.0,-300.0,26529.9,0.0
300.0,-300.0,24383.86,0.0
300.0,-300.0,22216.41,0.0
300.0,-300.0,20131.99,0.0
300.0,-300.0,18183.02,0.0
300.0,-300.0,16489.29,0.0
300.0,-300.0,14991.39,0.0
300.0,-300.0,13665.25,0.0
300.0,-300.0,12465.15,0.0
300.0,-300.0,11359.9,0.0
300.0,-300.0,10301.45,0.0
300.0,-300.0,9308.71,0.0
300.0,-300.0,8334.79,0.0
300.0,-300.0,7349.18,0.0
300.0,-300.0,6385.61,0.0
300.0,-300.0,5498.91,0.0
300.0,-300.0,4699.91,0.0
300.0,-300.0,3999.99,0.0
300.0,-300.0,3399.96,0.0
300.0,-300.0,2887.1,0.0
300.0,-300.0,2448.39,0.0
300.0,-300.0,2064.34,0.0
300.0,-300.0,1715.17,0.0
300.0,-300.0,1384.53,0.0
300.0,-300.0,1048.66,0.0
300.0,-300.0,739.86,0.0
300.0,-300.0,425.11,0.0
300.0,-300.0,113.89,0.0
300.0,-300.0,-181.2,0.0
300.0,-300.0,-446.42,0.0
300.0,-300.0,-669.23,0.0
300.0,-300.0,-840.77,0.0
300.0,-300.0,-943.18,0.0
300.0,-300.0,-985.95,0.0
300.0,-300.0,-975.93,0.0
300.0,-300.0,-906.91,0.0
300.0,-300.0,-807.65,0.0
300.0,-300.0,-692.58,0.0
300.0,-300.0,-576.12,0.0
300.0,-300.0,-472.89,0.0
300.0,-300.0,-395.07,0.0
300.0,-300.0,-352.69,0.0
300.0,-300.0,-352.12,0.0
300.0,-300.0,-395.4,0.0
300.0,-300.0,-474.73,0.0
300.0,-300.0,-586.03,0.0
300.0,-300.0,-717.37,0.0
300.0,-300.0,-854.18,0.0
300.0,-300.0,-980.03,0.0
300.0,-300.0,-1079.92,0.0
300.0,-300.0,-1139.66,0.0
300.0,-300.0,-1149.88,0.0
300.0,-300.0,-1105.64,0.0
300.0,-300.0,-1007.81,0.0
300.0,-300.0,-853.09,0.0
300.0,-300.0,-657.11,0.0
300.0,-300.0,-431.3,0.0
300.0,-300.0,-189.81,0.0
300.0,-300.0,53.73,0.0
300.0,-300.0,286.2,0.0
300.0,-300.0,498.04,0.0
300.0,-300.0,680.53,0.0
300.0,-300.0,830.21,0.0
300.0,-300.0,945.71,0.0
300.0,-300.0,1030.51,0.0
300.0,-300.0,1086.69,0.0
300.0,-300.0,1118.34,0.0
300.0,-300.0,1126.99,0.0
300.0,-300.0,1113.27,0.0
300.0,-300.0,1074.9,0.0
300.0,-300.0,1007.84,0.0
300.0,-300.0,904.22,0.0
300.0,-300.0,761.04,0.0
300.0,-300.0,572.19,0.0
300.0,-300.0,336.39,0.0
300.0,-300.0,55.3,0.0
300.0,-300.0,-265.59,0.0
300.0,-300.0,-617.06,0.0
300.0,-300.0,-986.46,0.0
300.0,-300.0,-1360.59,0.0
300.0,-300.0,-1725.85,0.0
300.0,-300.0,-2072.92,0.0
300.0,-300.0,-2390.79,0.0
300.0,-300.0,-2676.32,0.0
300.0,-300.0,-2929.48,0.0
300.0,-300.0,-3150.94,0.0
300.0,-300.0,-3345.65,0.0
300.0,-300.0,-3518.12,0.0
300.0,-300.0,-3671.42,0.0
300.0,-300.0,-3806.87,0.0
300.0,-300.0,-3922.15,0.0
300.0,-300.0,-4016.11,0.0
300.0,-300.0,-4081.4,0.0
300.0,-300.0,-4113.38,0.0
300.0,-300.0,-4109.24,0.0
300.0,-300.0,-4069.06,0.0
300.0,-300.0,-3995.97,0.0
300.0,-300.0,-3898.52,0.0
300.0,-300.0,-3787.9,0.0
300.0,-300.0,-3678.6,0.0
300.0,-300.0,-3584.51,0.0
300.0,-300.0,-3506.34,0.0
300.0,-300.0,-3456.26,0.0
300.0,-300.0,-3430.48,0.0
300.0,-300.0,-3426.03,0.0
300.0,-300.0,-3433.48,0.0
300.0,-300.0,-3439.57,0.0
300.0,-300.0,-3431.5,0.0
300.0,-300.0,-3397.7,0.0
300.0,-300.0,-3330.85,0.0
300.0,-300.0,-3231.1,0.0
300.0,-300.0,-3100.69,0.0
300.0,-300.0,-2948.88,0.0
300.0,-300.0,-2787.78,0.0
300.0,-300.0,-2630.88,0.0
300.0,-300.0,-2488.21,0.0
300.0,-300.0,-2368.82,0.0
300.0,-300.0,-2275.7,0.0
300.0,-300.0,-2204.62,0.0
300.0,-300.0,-2146.86,0.0
300.0,-300.0,-2091.72,0.0
300.0,-300.0,-2023.6,0.0
300.0,-300.0,-1926.58,0.0
300.0,-300.0,-1802.33,0.0
300.0,-300.0,-1636.16,0.0
300.0,-300.0,-1429.36,0.0
300.0,-300.0,-1188.7,0.0
300.0,-300.0,-926.27,0.0
300.0,-300.0,-655.88,0.0
300.0,-300.0,-392.46,0.0
300.0,-300.0,-148.83,0.0
300.0,-300.0,66.19,0.0
300.0,-300.0,247.05,0.0
300.0,-300.0,394.22,0.0
300.0,-300.0,509.81,0.0
300.0,-300.0,597.95,0.0
300.0,-300.0,663.71,0.0
300.0,-300.0,710.28,0.0
300.0,-300.0,738.74,0.0
300.0,-300.0,745.7,0.0
300.0,-300.0,724.41,0.0
300.0,-300.0,668.19,0.0
300.0,-300.0,569.35,0.0
300.0,-300.0,422.32,0.0
300.0,-300.0,223.91,0.0
300.0,-300.0,-25.59,0.0
300.0,-300.0,-319.67,0.0
300.0,-300.0,-647.93,0.0
300.0,-300.0,-996.76,0.0
300.0,-300.0,-1351.75,0.0
300.0,-300.0,-1700.57,0.0
300.0,-300.0,-2030.44,0.0
300.0,-300.0,-2331.96,0.0
300.0,-300.0,-2601.45,0.0
300.0,-300.0,-2837.34,0.0
300.0,-300.0,-3041.52,0.0
300.0,-300.0,-3216.53,0.0
300.0,-300.0,-3366.03,0.0
300.0,-300.0,-3490.49,0.0
300.0,-300.0,-3590.19,0.0
300.0,-300.0,-3663.16,0.0
300.0,-300.0,-3705.53,0.0
300.0,-300.0,-3710.82,0.0
300.0,-300.0,-3678.45,0.0
300.0,-300.0,-3606.54,0.0
300.0,-300.0,-3498.19,0.0
300.0,-300.0,-3360.27,0.0
300.0,-300.0,-3204.74,0.0
300.0,-300.0,-3046.06,0.0
300.0,-300.0,-2903.81,0.0
300.0,-300.0,-2791.75,0.0
300.0,-300.0,-2724.01,0.0
300.0,-300.0,-2705.92,0.0
300.0,-300.0,-2738.84,0.0
300.0,-300.0,-2812.75,0.0
300.0,-300.0,-2911.33,0.0
300.0,-300.0,-3013.67,0.0
300.0,-300.0,-3096.76,0.0
300.0,-300.0,-3138.39,0.0
300.0,-300.0,-3119.2,0.0
300.0,-300.0,-3032.33,0.0
300.0,-300.0,-2876.34,0.0
300.0,-300.0,-2656.99,0.0
300.0,-300.0,-2392.99,0.0
300.0,-300.0,-2106.69,0.0
300.0,-300.0,-1822.33,0.0
300.0,-300.0,-1563.9,0.0
300.0,-300.0,-1350.76,0.0
300.0,-300.0,-1193.93,0.0
300.0,-300.0,-1095.91,0.0
300.0,-300.0,-1049.08,0.0
300.0,-300.0,-1035.4,0.0
300.0,-300.0,-1043.32,0.0
300.0,-300.0,-1043.74,0.0
300.0,-300.0,-1015.06,0.0
300.0,-300.0,-940.09,0.0
300.0,-300.0,-808.45,0.0
300.0,-300.0,-619.05,0.0
300.0,-300.0,-378.42,0.0
300.0,-300.0,-100.62,0.0
300.0,-300.0,195.96,0.0
300.0,-300.0,494.44,0.0
300.0,-300.0,775.14,0.0
300.0,-300.0,1022.66,0.0
300.0,-300.0,1228.31,0.0
300.0,-300.0,1387.52,0.0
300.0,-300.0,1501.57,0.0
300.0,-300.0,1574.45,0.0
300.0,-300.0,1612.04,0.0
300.0,-300.0,1617.68,0.0
300.0,-300.0,1594.62,0.0
300.0,-300.0,1544.46,0.0
300.0,-300.0,1462.02,0.0
300.0,-300.0,1341.35,0.0
300.0,-300.0,1175.37,0.0
300.0,-300.0,957.59,0.0
300.0,-300.0,684.35,0.0
300.0,-300.0,355.75,0.0
300.0,-300.0,-24.37,0.0
300.0,-300.0,-445.06,0.0
300.0,-300.0,-892.82,0.0
300.0,-300.0,-1350.51,0.0
300.0,-300.0,-1802.16,0.0
300.0,-300.0,-2231.78,0.0
300.0,-300.0,-2627.37,0.0
300.0,-300.0,-2981.37,0.0
300.0,-300.0,-3290.46,0.0
300.0,-300.0,-3555.86,0.0
300.0,-300.0,-3783.33,0.0
300.0,-300.0,-3976.78,0.0
300.0,-300.0,-4141.83,0.0
300.0,-300.0,-4280.16,0.0
300.0,-300.0,-4392.59,0.0
300.0,-300.0,-4476.16,0.0
300.0,-300.0,-4524.95,0.0
300.0,-300.0,-4532.94,0.0
300.0,-300.0,-4494.18,0.0
300.0,-300.0,-4406.68,0.0
300.0,-300.0,-4274.38,0.0
300.0,-300.0,-4103.41,0.0
300.0,-300.0,-3908.01,0.0
300.0,-300.0,-3703.65,0.0
300.0,-300.0,-3511.04,0.0
300.0,-300.0,-3349.54,0.0
300.0,-300.0,-3234.21,0.0
300.0,-300.0,-3175.72,0.0
300.0,-300.0,-3176.36,0.0
300.0,-300.0,-3229.8,0.0
300.0,-300.0,-3302.57,0.0
300.0,-300.0,-3384.48,0.0
300.0,-300.0,-3444.34,0.0
300.0,-300.0,-3455.68,0.0
300.0,-300.0,-3398.33,0.0
300.0,-300.0,-3259.34,0.0
300.0,-300.0,-3035.87,0.0
300.0,-300.0,-2736.4,0.0
300.0,-300.0,-2379.32,0.0
300.0,-300.0,-1991.17,0.0
300.0,-300.0,-1605.21,0.0
300.0,-300.0,-1250.72,0.0
300.0,-300.0,-950.82,0.0
300.0,-300.0,-725.11,0.0
300.0,-300.0,-579.61,0.0
300.0,-300.0,-509.03,0.0
300.0,-300.0,-497.73,0.0
300.0,-300.0,-522.87,0.0
300.0,-300.0,-556.7,0.0
300.0,-300.0,-574.11,0.0
300.0,-300.0,-549.52,0.0
300.0,-300.0,-467.31,0.0
300.0,-300.0,-323.62,0.0
300.0,-300.0,-119.35,0.0
300.0,-300.0,132.48,0.0
300.0,-300.0,412.76,0.0
300.0,-300.0,700.51,0.0
300.0,-300.0,974.35,0.0
300.0,-300.0,1217.23,0.0
300.0,-300.0,1416.61,0.0
300.0,-300.0,1567.01,0.0
300.0,-300.0,1668.08,0.0
300.0,-300.0,1724.18,0.0
300.0,-300.0,1741.9,0.0
300.0,-300.0,1728.43,0.0
300.0,-300.0,1688.93,0.0
300.0,-300.0,1625.11,0.0
300.0,-300.0,1534.07,0.0
300.0,-300.0,1409.46,0.0
300.0,-300.0,1239.97,0.0
300.0,-300.0,1019.81,0.0
300.0,-300.0,740.93,0.0
300.0,-300.0,401.37,0.0
300.0,-300.0,4.29,0.0
300.0,-300.0,-441.69,0.0
300.0,-300.0,-921.55,0.0
300.0,-300.0,-1416.56,0.0
300.0,-300.0,-1906.42,0.0
300.0,-300.0,-2371.91,0.0
300.0,-300.0,-2798.82,0.0
300.0,-300.0,-3174.47,0.0
300.0,-300.0,-3495.08,0.0
300.0,-300.0,-3759.73,0.0
300.0,-300.0,-3974.78,0.0
300.0,-300.0,-4148.06,0.0
300.0,-300.0,-4287.7,0.0
300.0,-300.0,-4399.88,0.0
300.0,-300.0,-4487.58,0.0
300.0,-300.0,-4549.9,0.0
300.0,-300.0,-4583.15,0.0
300.0,-300.0,-4580.86,0.0
300.0,-300.0,-4535.01,0.0
300.0,-300.0,-4442.19,0.0
300.0,-300.0,-4302.21,0.0
300.0,-300.0,-4120.44,0.0
300.0,-300.0,-3908.17,0.0
300.0,-300.0,-3682.42,0.0
300.0,-300.0,-3464.14,0.0
300.0,-300.0,-3274.66,0.0
300.0,-300.0,-3135.26,0.0
300.0,-300.0,-3058.85,0.0
300.0,-300.0,-3047.83,0.0
300.0,-300.0,-3097.08,0.0
300.0,-300.0,-3190.85,0.0
300.0,-300.0,-3304.31,0.0
300.0,-300.0,-3407.96,0.0
300.0,-300.0,-3471.9,0.0
300.0,-300.0,-3470.43,0.0
300.0,-300.0,-3383.14,0.0
300.0,-300.0,-3205.83,0.0
300.0,-300.0,-2941.59,0.0
300.0,-300.0,-2605.06,0.0
300.0,-300.0,-2223.41,0.0
300.0,-300.0,-1827.42,0.0
300.0,-300.0,-1449.55,0.0
300.0,-300.0,-1118.92,0.0
300.0,-300.0,-856.48,0.0
300.0,-300.0,-673.68,0.0
300.0,-300.0,-569.13,0.0
300.0,-300.0,-531.24,0.0
300.0,-300.0,-535.57,0.0
300.0,-300.0,-571.72,0.0
300.0,-300.0,-600.24,0.0
300.0,-300.0,-597.6,0.0
300.0,-300.0,-546.4,0.0
300.0,-300.0,-437.95,0.0
300.0,-300.0,-273.98,0.0
300.0,-300.0,-64.0,0.0
300.0,-300.0,175.48,0.0
300.0,-300.0,425.96,0.0
300.0,-300.0,666.93,0.0
300.0,-300.0,883.69,0.0
300.0,-300.0,1061.98,0.0
300.0,-300.0,1194.34,0.0
300.0,-300.0,1279.85,0.0
300.0,-300.0,1321.02,0.0
300.0,-300.0,1323.84,0.0
300.0,-300.0,1294.39,0.0
300.0,-300.0,1235.05,0.0
300.0,-300.0,1148.21,0.0
300.0,-300.0,1034.06,0.0
300.0,-300.0,886.0,0.0
300.0,-300.0,697.36,0.0
300.0,-300.0,461.63,0.0
300.0,-300.0,174.59,0.0
300.0,-300.0,-164.34,0.0
300.0,-300.0,-550.73,0.0
300.0,-300.0,-976.09,0.0
300.0,-300.0,-1427.33,0.0
300.0,-300.0,-1887.75,0.0
300.0,-300.0,-2338.7,0.0
300.0,-300.0,-2764.11,0.0
300.0,-300.0,-3150.22,0.0
300.0,-300.0,-3488.12,0.0
300.0,-300.0,-3773.5,0.0
300.0,-300.0,-4007.59,0.0
300.0,-300.0,-4194.95,0.0
300.0,-300.0,-4343.92,0.0
300.0,-300.0,-4460.89,0.0
300.0,-300.0,-4552.17,0.0
300.0,-300.0,-4617.89,0.0
300.0,-300.0,-4660.34,0.0
300.0,-300.0,-4674.73,0.0
300.0,-300.0,-4655.3,0.0
300.0,-300.0,-4595.73,0.0
300.0,-300.0,-4492.45,0.0
300.0,-300.0,-4345.4,0.0
300.0,-300.0,-4161.6,0.0
300.0,-300.0,-3950.42,0.0
300.0,-300.0,-3729.0,0.0
300.0,-300.0,-3514.48,0.0
300.0,-300.0,-3327.98,0.0
300.0,-300.0,-3186.15,0.0
300.0,-300.0,-3100.41,0.0
300.0,-300.0,-3072.87,0.0
300.0,-300.0,-3095.67,0.0
300.0,-300.0,-3153.87,0.0
300.0,-300.0,-3210.09,0.0
300.0,-300.0,-3253.28,0.0
300.0,-300.0,-3253.35,0.0
300.0,-300.0,-3188.44,0.0
300.0,-300.0,-3046.01,0.0
300.0,-300.0,-2823.2,0.0
300.0,-300.0,-2529.08,0.0
300.0,-300.0,-2181.7,0.0
300.0,-300.0,-1807.42,0.0
300.0,-300.0,-1435.74,0.0
300.0,-300.0,-1096.38,0.0
300.0,-300.0,-810.84,0.0
300.0,-300.0,-593.94,0.0
300.0,-300.0,-447.82,0.0
300.0,-300.0,-365.52,0.0
300.0,-300.0,-330.65,0.0
300.0,-300.0,-320.21,0.0
300.0,-300.0,-307.82,0.0
300.0,-300.0,-268.31,0.0
300.0,-300.0,-182.67,0.0
300.0,-300.0,-40.44,0.0
300.0,-300.0,160.15,0.0
300.0,-300.0,407.83,0.0
300.0,-300.0,689.39,0.0
300.0,-300.0,982.38,0.0
300.0,-300.0,1264.04,0.0
300.0,-300.0,1514.67,0.0
300.0,-300.0,1719.82,0.0
300.0,-300.0,1870.95,0.0
300.0,-300.0,1966.19,0.0
300.0,-300.0,2007.56,0.0
300.0,-300.0,2002.49,0.0
300.0,-300.0,1958.26,0.0
300.0,-300.0,1881.35,0.0
300.0,-300.0,1775.35,0.0
300.0,-300.0,1639.41,0.0
300.0,-300.0,1469.16,0.0
300.0,-300.0,1257.8,0.0
300.0,-300.0,997.55,0.0
300.0,-300.0,683.09,0.0
300.0,-300.0,310.24,0.0
300.0,-300.0,-116.28,0.0
300.0,-300.0,-587.93,0.0
300.0,-300.0,-1091.07,0.0
300.0,-300.0,-1607.48,0.0
300.0,-300.0,-2117.06,0.0
300.0,-300.0,-2600.52,0.0
300.0,-300.0,-3042.06,0.0
300.0,-300.0,-3430.89,0.0
300.0,-300.0,-3761.93,0.0
300.0,-300.0,-4037.56,0.0
300.0,-300.0,-4261.89,0.0
300.0,-300.0,-4442.13,0.0
300.0,-300.0,-4587.97,0.0
300.0,-300.0,-4706.42,0.0
300.0,-300.0,-4800.77,0.0
300.0,-300.0,-4869.75,0.0
300.0,-300.0,-4908.75,0.0
300.0,-300.0,-4910.78,0.0
300.0,-300.0,-4867.9,0.0
300.0,-300.0,-4777.01,0.0
300.0,-300.0,-4635.19,0.0
300.0,-300.0,-4446.98,0.0
300.0,-300.0,-4223.9,0.0
300.0,-300.0,-3983.78,0.0
300.0,-300.0,-3747.02,0.0
300.0,-300.0,-3535.48,0.0
300.0,-300.0,-3368.95,0.0
300.0,-300.0,-3261.65,0.0
300.0,-300.0,-3218.24,0.0
300.0,-300.0,-3213.7,0.0
300.0,-300.0,-3248.07,0.0
300.0,-300.0,-3292.99,0.0
300.0,-300.0,-3322.08,0.0
300.0,-300.0,-3309.26,0.0
300.0,-300.0,-3232.99,0.0
300.0,-300.0,-3080.83,0.0
300.0,-300.0,-2850.35,0.0
300.0,-300.0,-2552.04,0.0
300.0,-300.0,-2204.58,0.0
300.0,-300.0,-1838.39,0.0
300.0,-300.0,-1479.01,0.0
300.0,-300.0,-1156.62,0.0
300.0,-300.0,-891.77,0.0
300.0,-300.0,-696.32,0.0
300.0,-300.0,-570.78,0.0
300.0,-300.0,-504.39,0.0
300.0,-300.0,-477.41,0.0
300.0,-300.0,-465.63,0.0
300.0,-300.0,-445.88,0.0
300.0,-300.0,-388.72,0.0
300.0,-300.0,-291.73,0.0
300.0,-300.0,-132.35,0.0
300.0,-300.0,85.49,0.0
300.0,-300.0,348.63,0.0
300.0,-300.0,637.87,0.0
300.0,-300.0,930.3,0.0
300.0,-300.0,1205.24,0.0
300.0,-300.0,1444.6,0.0
300.0,-300.0,1635.59,0.0
300.0,-300.0,1772.55,0.0
300.0,-300.0,1856.68,0.0
300.0,-300.0,1890.63,0.0
300.0,-300.0,1881.2,0.0
300.0,-300.0,1835.46,0.0
300.0,-300.0,1757.95,0.0
300.0,-300.0,1650.07,0.0
300.0,-300.0,1508.98,0.0
300.0,-300.0,1328.93,0.0
300.0,-300.0,1099.84,0.0
300.0,-300.0,817.42,0.0
300.0,-300.0,477.0,0.0
300.0,-300.0,79.54,0.0
300.0,-300.0,-368.56,0.0
300.0,-300.0,-855.22,0.0
300.0,-300.0,-1363.21,0.0
300.0,-300.0,-1873.09,0.0
300.0,-300.0,-2364.21,0.0
300.0,-300.0,-2819.81,0.0
300.0,-300.0,-3227.73,0.0
300.0,-300.0,-3579.55,0.0
300.0,-300.0,-3872.95,0.0
300.0,-300.0,-4112.58,0.0
300.0,-300.0,-4305.51,0.0
300.0,-300.0,-4460.76,0.0
300.0,-300.0,-4585.17,0.0
300.0,-300.0,-4684.11,0.0
300.0,-300.0,-4757.93,0.0
300.0,-300.0,-4804.7,0.0
300.0,-300.0,-4818.23,0.0
300.0,-300.0,-4792.6,0.0
300.0,-300.0,-4719.53,0.0
300.0,-300.0,-4598.91,0.0
300.0,-300.0,-4432.64,0.0
300.0,-300.0,-4230.02,0.0
300.0,-300.0,-4005.41,0.0
300.0,-300.0,-3778.81,0.0
300.0,-300.0,-3571.13,0.0
300.0,-300.0,-3402.66,0.0
300.0,-300.0,-3270.52,0.0
300.0,-300.0,-3192.48,0.0
300.0,-300.0,-3158.26,0.0
300.0,-300.0,-3158.22,0.0
300.0,-300.0,-3173.43,0.0
300.0,-300.0,-3182.62,0.0
300.0,-300.0,-3164.58,0.0
300.0,-300.0,-3101.36,0.0
300.0,-300.0,-2982.69,0.0
300.0,-300.0,-2809.47,0.0
300.0,-300.0,-2586.26,0.0
300.0,-300.0,-2328.78,0.0
300.0,-300.0,-2054.53,0.0
300.0,-300.0,-1785.71,0.0
300.0,-300.0,-1539.32,0.0
300.0,-300.0,-1327.99,0.0
300.0,-300.0,-1155.53,0.0
300.0,-300.0,-1018.31,0.0
300.0,-300.0,-905.34,0.0
300.0,-300.0,-803.37,0.0
300.0,-300.0,-691.53,0.0
300.0,-300.0,-549.66,0.0
300.0,-300.0,-384.88,0.0
300.0,-300.0,-174.65,0.0
300.0,-300.0,76.56,0.0
300.0,-300.0,358.28,0.0
300.0,-300.0,654.19,0.0
300.0,-300.0,945.05,0.0
300.0,-300.0,1212.63,0.0
300.0,-300.0,1439.74,0.0
300.0,-300.0,1618.29,0.0
300.0,-300.0,1742.12,0.0
300.0,-300.0,1815.04,0.0
300.0,-300.0,1840.54,0.0
300.0,-300.0,1825.94,0.0
300.0,-300.0,1777.76,0.0
300.0,-300.0,1701.29,0.0
300.0,-300.0,1597.13,0.0
300.0,-300.0,1463.09,0.0
300.0,-300.0,1290.81,0.0
300.0,-300.0,1074.3,0.0
300.0,-300.0,807.57,0.0
300.0,-300.0,484.95,0.0
300.0,-300.0,106.83,0.0
300.0,-300.0,-320.61,0.0
300.0,-300.0,-785.11,0.0
300.0,-300.0,-1270.98,0.0
300.0,-300.0,-1759.16,0.0
300.0,-300.0,-2230.71,0.0
300.0,-300.0,-2670.66,0.0
300.0,-300.0,-3066.36,0.0
300.0,-300.0,-3409.83,0.0
300.0,-300.0,-3701.0,0.0
300.0,-300.0,-3943.16,0.0
300.0,-300.0,-4142.33,0.0
300.0,-300.0,-4305.78,0.0
300.0,-300.0,-4439.74,0.0
300.0,-300.0,-4547.52,0.0
300.0,-300.0,-4629.11,0.0
300.0,-300.0,-4680.98,0.0
300.0,-300.0,-4697.49,0.0
300.0,-300.0,-4669.49,0.0
300.0,-300.0,-4595.04,0.0
300.0,-300.0,-4471.92,0.0
300.0,-300.0,-4304.5,0.0
300.0,-300.0,-4102.7,0.0
300.0,-300.0,-3882.18,0.0
300.0,-300.0,-3662.83,0.0
300.0,-300.0,-3463.64,0.0
300.0,-300.0,-3300.74,0.0
300.0,-300.0,-3185.11,0.0
300.0,-300.0,-3118.48,0.0
300.0,-300.0,-3096.7,0.0
300.0,-300.0,-3107.61,0.0
300.0,-300.0,-3132.23,0.0
300.0,-300.0,-3149.65,0.0
300.0,-300.0,-3138.44,0.0
300.0,-300.0,-3081.82,0.0
300.0,-300.0,-2971.94,0.0
300.0,-300.0,-2806.43,0.0
300.0,-300.0,-2592.55,0.0
300.0,-300.0,-2345.0,0.0
300.0,-300.0,-2082.45,0.0
300.0,-300.0,-1826.12,0.0
300.0,-300.0,-1592.45,0.0
300.0,-300.0,-1393.98,0.0
300.0,-300.0,-1234.58,0.0
300.0,-300.0,-1111.13,0.0
300.0,-300.0,-1013.34,0.0
300.0,-300.0,-925.8,0.0
300.0,-300.0,-825.9,0.0
300.0,-300.0,-712.77,0.0
300.0,-300.0,-561.95,0.0
300.0,-300.0,-369.06,0.0
300.0,-300.0,-136.17,0.0
300.0,-300.0,127.79,0.0
300.0,-300.0,408.11,0.0
300.0,-300.0,686.93,0.0
300.0,-300.0,946.36,0.0
300.0,-300.0,1169.4,0.0
300.0,-300.0,1348.46,0.0
300.0,-300.0,1475.98,0.0
300.0,-300.0,1551.76,0.0
300.0,-300.0,1580.41,0.0
300.0,-300.0,1568.71,0.0
300.0,-300.0,1522.9,0.0
300.0,-300.0,1448.01,0.0
300.0,-300.0,1345.59,0.0
300.0,-300.0,1213.04,0.0
300.0,-300.0,1045.72,0.0
300.0,-300.0,840.63,0.0
300.0,-300.0,589.08,0.0
300.0,-300.0,288.33,0.0
300.0,-300.0,-60.79,0.0
300.0,-300.0,-452.77,0.0
300.0,-300.0,-877.23,0.0
300.0,-300.0,-1320.14,0.0
300.0,-300.0,-1766.62,0.0
300.0,-300.0,-2198.91,0.0
300.0,-300.0,-2603.14,0.0
300.0,-300.0,-2967.04,0.0
300.0,-300.0,-3285.85,0.0
300.0,-300.0,-3557.1,0.0
300.0,-300.0,-3783.56,0.0
300.0,-300.0,-3970.54,0.0
300.0,-300.0,-4124.31,0.0
300.0,-300.0,-4250.22,0.0
300.0,-300.0,-4352.55,0.0
300.0,-300.0,-4429.75,0.0
300.0,-300.0,-4480.31,0.0
300.0,-300.0,-4497.0,0.0
300.0,-300.0,-4475.53,0.0
300.0,-300.0,-4411.01,0.0
300.0,-300.0,-4302.09,0.0
300.0,-300.0,-4151.95,0.0
300.0,-300.0,-3968.89,0.0
300.0,-300.0,-3767.12,0.0
300.0,-300.0,-3566.5,0.0
300.0,-300.0,-3384.16,0.0
300.0,-300.0,-3239.55,0.0
300.0,-300.0,-3144.81,0.0
300.0,-300.0,-3105.67,0.0
300.0,-300.0,-3119.58,0.0
300.0,-300.0,-3173.4,0.0
300.0,-300.0,-3246.98,0.0
300.0,-300.0,-3316.48,0.0
300.0,-300.0,-3356.98,0.0
300.0,-300.0,-3342.48,0.0
300.0,-300.0,-3261.26,0.0
300.0,-300.0,-3103.72,0.0
300.0,-300.0,-2873.1,0.0
300.0,-300.0,-2582.77,0.0
300.0,-300.0,-2253.74,0.0
300.0,-300.0,-1912.11,0.0
300.0,-300.0,-1585.67,0.0
300.0,-300.0,-1298.33,0.0
300.0,-300.0,-1067.25,0.0
300.0,-300.0,-899.03,0.0
300.0,-300.0,-793.56,0.0
300.0,-300.0,-738.77,0.0
300.0,-300.0,-717.72,0.0
300.0,-300.0,-708.6,0.0
300.0,-300.0,-687.99,0.0
300.0,-300.0,-636.26,0.0
300.0,-300.0,-540.06,0.0
300.0,-300.0,-394.08,0.0
300.0,-300.0,-201.98,0.0
300.0,-300.0,25.89,0.0
300.0,-300.0,271.75,0.0
300.0,-300.0,519.81,0.0
300.0,-300.0,751.15,0.0
300.0,-300.0,951.48,0.0
300.0,-300.0,1112.11,0.0
300.0,-300.0,1229.04,0.0
300.0,-300.0,1303.78,0.0
300.0,-300.0,1340.62,0.0
300.0,-300.0,1345.86,0.0
300.0,-300.0,1322.6,0.0
300.0,-300.0,1275.27,0.0
300.0,-300.0,1203.9,0.0
300.0,-300.0,1104.49,0.0
300.0,-300.0,970.51,0.0
300.0,-300.0,794.88,0.0
300.0,-300.0,571.25,0.0
300.0,-300.0,296.22,0.0
300.0,-300.0,-29.81,0.0
300.0,-300.0,-400.58,0.0
300.0,-300.0,-807.83,0.0
300.0,-300.0,-1234.78,0.0
300.0,-300.0,-1666.17,0.0
300.0,-300.0,-2084.94,0.0
300.0,-300.0,-2476.84,0.0
300.0,-300.0,-2831.58,0.0
300.0,-300.0,-3143.1,0.0
300.0,-300.0,-3410.31,0.0
300.0,-300.0,-3636.72,0.0
300.0,-300.0,-3827.87,0.0
300.0,-300.0,-3991.73,0.0
300.0,-300.0,-4132.48,0.0
300.0,-300.0,-4253.16,0.0
300.0,-300.0,-4353.29,0.0
300.0,-300.0,-4429.46,0.0
300.0,-300.0,-4474.66,0.0
300.0,-300.0,-4480.96,0.0
300.0,-300.0,-4441.98,0.0
300.0,-300.0,-4354.67,0.0
300.0,-300.0,-4220.64,0.0
300.0,-300.0,-4049.0,0.0
300.0,-300.0,-3851.09,0.0
300.0,-300.0,-3646.02,0.0
300.0,-300.0,-3453.73,0.0
300.0,-300.0,-3294.4,0.0
300.0,-300.0,-3183.13,0.0
300.0,-300.0,-3130.64,0.0
300.0,-300.0,-3138.07,0.0
300.0,-300.0,-3197.31,0.0
300.0,-300.0,-3291.17,0.0
300.0,-300.0,-3376.28,0.0
300.0,-300.0,-3444.53,0.0
300.0,-300.0,-3464.58,0.0
300.0,-300.0,-3414.77,0.0
300.0,-300.0,-3282.79,0.0
300.0,-300.0,-3066.44,0.0
300.0,-300.0,-2775.34,0.0
300.0,-300.0,-2429.24,0.0
300.0,-300.0,-2055.06,0.0
300.0,-300.0,-1685.66,0.0
300.0,-300.0,-1349.91,0.0
300.0,-300.0,-1070.12,0.0
300.0,-300.0,-864.69,0.0
300.0,-300.0,-737.91,0.0
300.0,-300.0,-683.11,0.0
300.0,-300.0,-684.37,0.0
300.0,-300.0,-718.26,0.0
300.0,-300.0,-757.68,0.0
300.0,-300.0,-776.3,0.0
300.0,-300.0,-754.03,0.0
300.0,-300.0,-673.17,0.0
300.0,-300.0,-533.5,0.0
300.0,-300.0,-335.87,0.0
300.0,-300.0,-94.34,0.0
300.0,-300.0,172.13,0.0
300.0,-300.0,443.22,0.0
300.0,-300.0,699.66,0.0
300.0,-300.0,925.99,0.0
300.0,-300.0,1112.7,0.0
300.0,-300.0,1253.53,0.0
300.0,-300.0,1351.53,0.0
300.0,-300.0,1408.67,0.0
300.0,-300.0,1433.44,0.0
300.0,-300.0,1430.92,0.0
300.0,-300.0,1404.08,0.0
300.0,-300.0,1352.79,0.0
300.0,-300.0,1272.75,0.0
300.0,-300.0,1156.77,0.0
300.0,-300.0,996.73,0.0
300.0,-300.0,783.54,0.0
300.0,-300.0,514.05,0.0
300.0,-300.0,186.43,0.0
300.0,-300.0,-193.39,0.0
300.0,-300.0,-615.12,0.0
300.0,-300.0,-1063.37,0.0
300.0,-300.0,-1519.72,0.0
300.0,-300.0,-1965.74,0.0
300.0,-300.0,-2384.48,0.0
300.0,-300.0,-2762.83,0.0
300.0,-300.0,-3094.61,0.0
300.0,-300.0,-3377.8,0.0
300.0,-300.0,-3613.48,0.0
300.0,-300.0,-3810.14,0.0
300.0,-300.0,-3975.75,0.0
300.0,-300.0,-4117.25,0.0
300.0,-300.0,-4239.15,0.0
300.0,-300.0,-4341.8,0.0
300.0,-300.0,-4421.78,0.0
300.0,-300.0,-4472.79,0.0
300.0,-300.0,-4485.72,0.0
300.0,-300.0,-4454.5,0.0
300.0,-300.0,-4372.02,0.0
300.0,-300.0,-4241.27,0.0
300.0,-300.0,-4068.2,0.0
300.0,-300.0,-3865.64,0.0
300.0,-300.0,-3651.89,0.0
300.0,-300.0,-3447.68,0.0
300.0,-300.0,-3274.9,0.0
300.0,-300.0,-3151.91,0.0
300.0,-300.0,-3092.73,0.0
300.0,-300.0,-3099.54,0.0
300.0,-300.0,-3164.34,0.0
300.0,-300.0,-3271.44,0.0
300.0,-300.0,-3395.04,0.0
300.0,-300.0,-3506.23,0.0
300.0,-300.0,-3575.94,0.0
300.0,-300.0,-3579.39,0.0
300.0,-300.0,-3498.7,0.0
300.0,-300.0,-3326.12,0.0
300.0,-300.0,-3067.25,0.0
300.0,-300.0,-2736.85,0.0
300.0,-300.0,-2358.92,0.0
300.0,-300.0,-1963.58,0.0
300.0,-300.0,-1582.5,0.0
300.0,-300.0,-1244.06,0.0
300.0,-300.0,-968.87,0.0
300.0,-300.0,-769.28,0.0
300.0,-300.0,-645.88,0.0
300.0,-300.0,-589.22,0.0
300.0,-300.0,-581.07,0.0
300.0,-300.0,-593.84,0.0
300.0,-300.0,-621.74,0.0
300.0,-300.0,-621.39,0.0
300.0,-300.0,-577.31,0.0
300.0,-300.0,-481.52,0.0
300.0,-300.0,-333.7,0.0
300.0,-300.0,-141.1,0.0
300.0,-300.0,83.16,0.0
300.0,-300.0,323.11,0.0
300.0,-300.0,561.64,0.0
300.0,-300.0,784.22,0.0
300.0,-300.0,977.42,0.0
300.0,-300.0,1133.49,0.0
300.0,-300.0,1249.39,0.0
300.0,-300.0,1327.01,0.0
300.0,-300.0,1369.71,0.0
300.0,-300.0,1382.78,0.0
300.0,-300.0,1369.79,0.0
300.0,-300.0,1332.52,0.0
300.0,-300.0,1267.85,0.0
300.0,-300.0,1174.24,0.0
300.0,-300.0,1043.05,0.0
300.0,-300.0,867.73,0.0
300.0,-300.0,642.42,0.0
300.0,-300.0,364.84,0.0
300.0,-300.0,36.26,0.0
300.0,-300.0,-336.57,0.0
300.0,-300.0,-743.17,0.0
300.0,-300.0,-1170.2,0.0
300.0,-300.0,-1601.44,0.0
300.0,-300.0,-2018.69,0.0
300.0,-300.0,-2409.59,0.0
300.0,-300.0,-2762.91,0.0
300.0,-300.0,-3072.53,0.0
300.0,-300.0,-3336.89,0.0
300.0,-300.0,-3558.82,0.0
300.0,-300.0,-3743.29,0.0
300.0,-300.0,-3897.29,0.0
300.0,-300.0,-4027.96,0.0
300.0,-300.0,-4137.77,0.0
300.0,-300.0,-4225.95,0.0
300.0,-300.0,-4291.75,0.0
300.0,-300.0,-4329.26,0.0
300.0,-300.0,-4332.58,0.0
300.0,-300.0,-4296.05,0.0
300.0,-300.0,-4217.35,0.0
300.0,-300.0,-4098.44,0.0
300.0,-300.0,-3946.01,0.0
300.0,-300.0,-3774.15,0.0
300.0,-300.0,-3597.29,0.0
300.0,-300.0,-3433.03,0.0
300.0,-300.0,-3299.77,0.0
300.0,-300.0,-3212.29,0.0
300.0,-300.0,-3179.66,0.0
300.0,-300.0,-3203.25,0.0
300.0,-300.0,-3276.75,0.0
300.0,-300.0,-3383.91,0.0
300.0,-300.0,-3502.76,0.0
300.0,-300.0,-3589.79,0.0
300.0,-300.0,-3635.96,0.0
300.0,-300.0,-3614.39,0.0
300.0,-300.0,-3509.24,0.0
300.0,-300.0,-3316.04,0.0
300.0,-300.0,-3040.15,0.0
300.0,-300.0,-2698.32,0.0
300.0,-300.0,-2315.41,0.0
300.0,-300.0,-1921.32,0.0
300.0,-300.0,-1547.45,0.0
300.0,-300.0,-1222.96,0.0
300.0,-300.0,-968.07,0.0
300.0,-300.0,-792.52,0.0
300.0,-300.0,-698.63,0.0
300.0,-300.0,-675.36,0.0
300.0,-300.0,-703.59,0.0
300.0,-300.0,-758.11,0.0
300.0,-300.0,-810.82,0.0
300.0,-300.0,-835.53,0.0
300.0,-300.0,-812.33,0.0
300.0,-300.0,-730.17,0.0
300.0,-300.0,-587.59,0.0
300.0,-300.0,-389.66,0.0
300.0,-300.0,-151.24,0.0
300.0,-300.0,109.48,0.0
300.0,-300.0,372.48,0.0
300.0,-300.0,620.05,0.0
300.0,-300.0,837.53,0.0
300.0,-300.0,1015.78,0.0
300.0,-300.0,1150.64,0.0
300.0,-300.0,1243.57,0.0
300.0,-300.0,1300.01,0.0
300.0,-300.0,1325.05,0.0
300.0,-300.0,1325.09,0.0
300.0,-300.0,1303.0,0.0
300.0,-300.0,1257.85,0.0
300.0,-300.0,1185.08,0.0
300.0,-300.0,1077.58,0.0
300.0,-300.0,926.55,0.0
300.0,-300.0,721.96,0.0
300.0,-300.0,461.2,0.0
300.0,-300.0,142.6,0.0
300.0,-300.0,-229.61,0.0
300.0,-300.0,-644.0,0.0
300.0,-300.0,-1085.99,0.0
300.0,-300.0,-1537.8,0.0
300.0,-300.0,-1980.61,0.0
300.0,-300.0,-2397.95,0.0
300.0,-300.0,-2776.9,0.0
300.0,-300.0,-3111.55,0.0
300.0,-300.0,-3397.63,0.0
300.0,-300.0,-3639.18,0.0
300.0,-300.0,-3841.07,0.0
300.0,-300.0,-4011.55,0.0
300.0,-300.0,-4157.34,0.0
300.0,-300.0,-4282.55,0.0
300.0,-300.0,-4386.95,0.0
300.0,-300.0,-4467.02,0.0
300.0,-300.0,-4515.63,0.0
300.0,-300.0,-4525.68,0.0
300.0,-300.0,-4490.11,0.0
300.0,-300.0,-4403.49,0.0
300.0,-300.0,-4268.34,0.0
300.0,-300.0,-4091.91,0.0
300.0,-300.0,-3887.59,0.0
300.0,-300.0,-3673.85,0.0
300.0,-300.0,-3471.39,0.0
300.0,-300.0,-3301.49,0.0
300.0,-300.0,-3181.72,0.0
300.0,-300.0,-3122.13,0.0
300.0,-300.0,-3124.02,0.0
300.0,-300.0,-3176.28,0.0
300.0,-300.0,-3261.61,0.0
300.0,-300.0,-3355.19,0.0
300.0,-300.0,-3429.24,0.0
300.0,-300.0,-3456.82,0.0
300.0,-300.0,-3416.12,0.0
300.0,-300.0,-3293.58,0.0
300.0,-300.0,-3086.78,0.0
300.0,-300.0,-2804.8,0.0
300.0,-300.0,-2466.38,0.0
300.0,-300.0,-2095.93,0.0
300.0,-300.0,-1725.03,0.0
300.0,-300.0,-1382.18,0.0
300.0,-300.0,-1090.79,0.0
300.0,-300.0,-866.84,0.0
300.0,-300.0,-715.01,0.0
300.0,-300.0,-630.33,0.0
300.0,-300.0,-597.08,0.0
300.0,-300.0,-596.01,0.0
300.0,-300.0,-597.91,0.0
300.0,-300.0,-597.1,0.0
300.0,-300.0,-556.47,0.0
300.0,-300.0,-465.65,0.0
300.0,-300.0,-323.0,0.0
300.0,-300.0,-134.92,0.0
300.0,-300.0,86.36,0.0
300.0,-300.0,324.6,0.0
300.0,-300.0,562.34,0.0
300.0,-300.0,783.28,0.0
300.0,-300.0,974.47,0.0
300.0,-300.0,1128.78,0.0
300.0,-300.0,1242.08,0.0
300.0,-300.0,1315.55,0.0
300.0,-300.0,1354.19,0.0
300.0,-300.0,1363.26,0.0
300.0,-300.0,1347.66,0.0
300.0,-300.0,1310.42,0.0
300.0,-300.0,1248.86,0.0
300.0,-300.0,1160.8,0.0
300.0,-300.0,1039.76,0.0
300.0,-300.0,878.7,0.0
300.0,-300.0,671.3,0.0
300.0,-300.0,413.24,0.0
300.0,-300.0,105.53,0.0
300.0,-300.0,-246.7,0.0
300.0,-300.0,-633.33,0.0
300.0,-300.0,-1040.98,0.0
300.0,-300.0,-1455.02,0.0
300.0,-300.0,-1859.61,0.0
300.0,-300.0,-2240.41,0.0
300.0,-300.0,-2587.54,0.0
300.0,-300.0,-2895.65,0.0
300.0,-300.0,-3163.1,0.0
300.0,-300.0,-3392.61,0.0
300.0,-300.0,-3588.95,0.0
300.0,-300.0,-3758.05,0.0
300.0,-300.0,-3904.99,0.0
300.0,-300.0,-4032.96,0.0
300.0,-300.0,-4142.28,0.0
300.0,-300.0,-4226.39,0.0
300.0,-300.0,-4282.09,0.0
300.0,-300.0,-4302.13,0.0
300.0,-300.0,-4280.55,0.0
300.0,-300.0,-4214.34,0.0
300.0,-300.0,-4105.19,0.0
300.0,-300.0,-3959.7,0.0
300.0,-300.0,-3791.54,0.0
300.0,-300.0,-3615.9,0.0
300.0,-300.0,-3451.97,0.0
300.0,-300.0,-3315.69,0.0
300.0,-300.0,-3224.78,0.0
300.0,-300.0,-3187.77,0.0
300.0,-300.0,-3206.7,0.0
300.0,-300.0,-3274.96,0.0
300.0,-300.0,-3377.54,0.0
300.0,-300.0,-3491.84,0.0
300.0,-300.0,-3576.13,0.0
300.0,-300.0,-3621.53,0.0
300.0,-300.0,-3600.8,0.0
300.0,-300.0,-3499.05,0.0
300.0,-300.0,-3310.94,0.0
300.0,-300.0,-3043.08,0.0
300.0,-300.0,-2711.29,0.0
300.0,-300.0,-2339.93,0.0
300.0,-300.0,-1958.76,0.0
300.0,-300.0,-1597.68,0.0
300.0,-300.0,-1286.34,0.0
300.0,-300.0,-1041.93,0.0
300.0,-300.0,-875.85,0.0
300.0,-300.0,-787.73,0.0
300.0,-300.0,-766.85,0.0
300.0,-300.0,-794.24,0.0
300.0,-300.0,-844.83,0.0
300.0,-300.0,-891.44,0.0
300.0,-300.0,-908.18,0.0
300.0,-300.0,-875.97,0.0
300.0,-300.0,-784.99,0.0
300.0,-300.0,-632.99,0.0
300.0,-300.0,-427.43,0.0
300.0,-300.0,-181.44,0.0
300.0,-300.0,86.17,0.0
300.0,-300.0,355.84,0.0
300.0,-300.0,609.93,0.0
300.0,-300.0,834.57,0.0
300.0,-300.0,1020.81,0.0
300.0,-300.0,1165.55,0.0
300.0,-300.0,1269.57,0.0
300.0,-300.0,1337.46,0.0
300.0,-300.0,1374.16,0.0
300.0,-300.0,1385.89,0.0
300.0,-300.0,1374.07,0.0
300.0,-300.0,1338.42,0.0
300.0,-300.0,1273.13,0.0
300.0,-300.0,1171.28,0.0
300.0,-300.0,1023.98,0.0
300.0,-300.0,823.44,0.0
300.0,-300.0,565.94,0.0
300.0,-300.0,251.3,0.0
300.0,-300.0,-114.66,0.0
300.0,-300.0,-521.32,0.0
300.0,-300.0,-953.76,0.0
300.0,-300.0,-1393.76,0.0
300.0,-300.0,-1824.33,0.0
300.0,-300.0,-2229.54,0.0
300.0,-300.0,-2597.38,0.0
300.0,-300.0,-2922.53,0.0
300.0,-300.0,-3202.25,0.0
300.0,-300.0,-3440.57,0.0
300.0,-300.0,-3642.3,0.0
300.0,-300.0,-3815.97,0.0
300.0,-300.0,-3968.02,0.0
300.0,-300.0,-4100.94,0.0
300.0,-300.0,-4214.59,0.0
300.0,-300.0,-4304.24,0.0
300.0,-300.0,-4362.74,0.0
300.0,-300.0,-4383.3,0.0
300.0,-300.0,-4357.33,0.0
300.0,-300.0,-4282.3,0.0
300.0,-300.0,-4158.6,0.0
300.0,-300.0,-3994.64,0.0
300.0,-300.0,-3804.08,0.0
300.0,-300.0,-3605.15,0.0
300.0,-300.0,-3418.6,0.0
300.0,-300.0,-3264.98,0.0
300.0,-300.0,-3161.28,0.0
300.0,-300.0,-3119.36,0.0
300.0,-300.0,-3139.01,0.0
300.0,-300.0,-3211.62,0.0
300.0,-300.0,-3319.09,0.0
300.0,-300.0,-3436.02,0.0
300.0,-300.0,-3535.5,0.0
300.0,-300.0,-3589.92,0.0
300.0,-300.0,-3576.73,0.0
300.0,-300.0,-3480.15,0.0
300.0,-300.0,-3295.79,0.0
300.0,-300.0,-3029.95,0.0
300.0,-300.0,-2701.0,0.0
300.0,-300.0,-2331.26,0.0
300.0,-300.0,-1951.9,0.0
300.0,-300.0,-1592.0,0.0
300.0,-300.0,-1277.61,0.0
300.0,-300.0,-1026.69,0.0
300.0,-300.0,-848.18,0.0
300.0,-300.0,-740.64,0.0
300.0,-300.0,-693.04,0.0
300.0,-300.0,-685.36,0.0
300.0,-300.0,-693.55,0.0
300.0,-300.0,-708.63,0.0
300.0,-300.0,-692.76,0.0
300.0,-300.0,-633.13,0.0
300.0,-300.0,-523.51,0.0
300.0,-300.0,-366.38,0.0
300.0,-300.0,-169.88,0.0
300.0,-300.0,52.94,0.0
300.0,-300.0,286.86,0.0
300.0,-300.0,515.27,0.0
300.0,-300.0,724.53,0.0
300.0,-300.0,906.68,0.0
300.0,-300.0,1052.76,0.0
300.0,-300.0,1163.06,0.0
300.0,-300.0,1238.97,0.0
300.0,-300.0,1285.02,0.0
300.0,-300.0,1305.45,0.0
300.0,-300.0,1303.47,0.0
300.0,-300.0,1277.03,0.0
300.0,-300.0,1226.06,0.0
300.0,-300.0,1144.12,0.0
300.0,-300.0,1025.8,0.0
300.0,-300.0,862.88,0.0
300.0,-300.0,651.39,0.0
300.0,-300.0,388.78,0.0
300.0,-300.0,77.89,0.0
300.0,-300.0,-274.43,0.0
300.0,-300.0,-656.75,0.0
300.0,-300.0,-1057.92,0.0
300.0,-300.0,-1460.81,0.0
300.0,-300.0,-1852.08,0.0
300.0,-300.0,-2219.26,0.0
300.0,-300.0,-2553.36,0.0
300.0,-300.0,-2850.59,0.0
300.0,-300.0,-3110.8,0.0
300.0,-300.0,-3336.3,0.0
300.0,-300.0,-3532.01,0.0
300.0,-300.0,-3702.15,0.0
300.0,-300.0,-3851.77,0.0
300.0,-300.0,-3981.18,0.0
300.0,-300.0,-4088.07,0.0
300.0,-300.0,-4169.17,0.0
300.0,-300.0,-4218.4,0.0
300.0,-300.0,-4229.4,0.0
300.0,-300.0,-4197.73,0.0
300.0,-300.0,-4121.89,0.0
300.0,-300.0,-4005.94,0.0
300.0,-300.0,-3857.47,0.0
300.0,-300.0,-3690.57,0.0
300.0,-300.0,-3521.78,0.0
300.0,-300.0,-3367.42,0.0
300.0,-300.0,-3245.01,0.0
300.0,-300.0,-3167.73,0.0
300.0,-300.0,-3142.16,0.0
300.0,-300.0,-3168.67,0.0
300.0,-300.0,-3238.42,0.0
300.0,-300.0,-3335.88,0.0
300.0,-300.0,-3438.71,0.0
300.0,-300.0,-3508.37,0.0
300.0,-300.0,-3537.54,0.0
300.0,-300.0,-3499.98,0.0
300.0,-300.0,-3385.29,0.0
300.0,-300.0,-3189.78,0.0
300.0,-300.0,-2920.97,0.0
300.0,-300.0,-2595.21,0.0
300.0,-300.0,-2235.8,0.0
300.0,-300.0,-1871.01,0.0
300.0,-300.0,-1528.28,0.0
300.0,-300.0,-1233.41,0.0
300.0,-300.0,-1002.97,0.0
300.0,-300.0,-844.25,0.0
300.0,-300.0,-757.78,0.0
300.0,-300.0,-733.48,0.0
300.0,-300.0,-752.63,0.0
300.0,-300.0,-792.39,0.0
300.0,-300.0,-828.48,0.0
300.0,-300.0,-838.77,0.0
300.0,-300.0,-806.27,0.0
300.0,-300.0,-725.79,0.0
300.0,-300.0,-593.79,0.0
300.0,-300.0,-418.75,0.0
300.0,-300.0,-212.14,0.0
300.0,-300.0,8.89,0.0
300.0,-300.0,228.02,0.0
300.0,-300.0,430.15,0.0
300.0,-300.0,603.91,0.0
300.0,-300.0,742.73,0.0
300.0,-300.0,845.21,0.0
300.0,-300.0,910.15,0.0
300.0,-300.0,945.87,0.0
300.0,-300.0,954.06,0.0
300.0,-300.0,941.82,0.0
300.0,-300.0,909.34,0.0
300.0,-300.0,854.81,0.0
300.0,-300.0,773.43,0.0
300.0,-300.0,658.23,0.0
300.0,-300.0,501.87,0.0
300.0,-300.0,298.0,0.0
300.0,-300.0,42.49,0.0
300.0,-300.0,-263.62,0.0
300.0,-300.0,-613.33,0.0
300.0,-300.0,-997.12,0.0
300.0,-300.0,-1400.89,0.0
300.0,-300.0,-1808.45,0.0
300.0,-300.0,-2204.57,0.0
300.0,-300.0,-2575.26,0.0
300.0,-300.0,-2911.19,0.0
300.0,-300.0,-3207.01,0.0
300.0,-300.0,-3463.27,0.0
300.0,-300.0,-3681.72,0.0
300.0,-300.0,-3870.06,0.0
300.0,-300.0,-4033.59,0.0
300.0,-300.0,-4177.51,0.0
300.0,-300.0,-4302.63,0.0
300.0,-300.0,-4407.47,0.0
300.0,-300.0,-4485.89,0.0
300.0,-300.0,-4530.16,0.0
300.0,-300.0,-4528.98,0.0
300.0,-300.0,-4477.94,0.0
300.0,-300.0,-4369.98,0.0
300.0,-300.0,-4208.95,0.0
300.0,-300.0,-4001.88,0.0
300.0,-300.0,-3762.86,0.0
300.0,-300.0,-3509.77,0.0
300.0,-300.0,-3263.49,0.0
300.0,-300.0,-3044.1,0.0
300.0,-300.0,-2869.0,0.0
300.0,-300.0,-2747.3,0.0
300.0,-300.0,-2681.39,0.0
300.0,-300.0,-2661.09,0.0
300.0,-300.0,-2670.37,0.0
300.0,-300.0,-2686.34,0.0
300.0,-300.0,-2682.29,0.0
300.0,-300.0,-2630.73,0.0
300.0,-300.0,-2508.15,0.0
300.0,-300.0,-2297.35,0.0
300.0,-300.0,-1989.01,0.0
300.0,-300.0,-1502.5,0.0
300.0,-300.0,-1070.15,0.0
300.0,-300.0,-267.91,0.0
300.0,-300.0,1029.29,0.0
300.0,-300.0,2980.89,0.0
300.0,-300.0,5649.04,0.0
300.0,-300.0,9058.84,0.0
300.0,-300.0,13237.68,0.0
300.0,-300.0,18091.37,0.0
300.0,-300.0,23417.21,0.0
300.0,-300.0,28823.06,0.0
300.0,-300.0,33963.21,0.0
300.0,-300.0,38403.33,0.0
300.0,-300.0,41772.61,0.0
300.0,-300.0,43755.57,0.0
300.0,-300.0,44159.64,0.0
300.0,-300.0,42971.46,0.0
300.0,-300.0,40360.0,0.0
300.0,-300.0,36652.04,0.0
300.0,-300.0,32312.81,0.0
300.0,-300.0,27701.12,0.0
300.0,-300.0,23545.66,0.0
300.0,-300.0,20286.78,0.0
300.0,-300.0,18298.95,0.0
300.0,-300.0,17790.23,0.0
300.0,-300.0,18810.05,0.0
300.0,-300.0,21281.16,0.0
300.0,-300.0,24878.54,0.0
300.0,-300.0,29212.71,0.0
300.0,-300.0,33869.6,0.0
300.0,-300.0,38398.09,0.0
300.0,-300.0,42479.36,0.0
300.0,-300.0,45830.27,0.0
300.0,-300.0,48272.51,0.0
300.0,-300.0,49717.69,0.0
300.0,-300.0,50134.92,0.0
300.0,-300.0,49518.61,0.0
300.0,-300.0,47851.5,0.0
300.0,-300.0,45081.08,0.0
300.0,-300.0,41087.45,0.0
300.0,-300.0,35751.82,0.0
300.0,-300.0,28917.13,0.0
300.0,-300.0,20463.23,0.0
300.0,-300.0,10334.23,0.0
300.0,-300.0,-1415.03,0.0
300.0,-300.0,-14599.06,0.0
300.0,-300.0,-28894.2,0.0
300.0,-300.0,-43857.37,0.0
300.0,-300.0,-58960.58,0.0
300.0,-300.0,-73651.07,0.0
300.0,-300.0,-87384.88,0.0
300.0,-300.0,-99705.77,0.0
300.0,-300.0,-110269.67,0.0
300.0,-300.0,-118870.3,0.0
300.0,-300.0,-125434.52,0.0
300.0,-300.0,-129999.06,0.0
300.0,-300.0,-132673.19,0.0
300.0,-300.0,-133592.86,0.0
300.0,-300.0,-132878.7,0.0
300.0,-300.0,-130609.65,0.0
300.0,-300.0,-126800.49,0.0
300.0,-300.0,-121422.32,0.0
300.0,-300.0,-114425.18,0.0
300.0,-300.0,-105780.7,0.0
300.0,-300.0,-95529.11,0.0
300.0,-300.0,-83819.41,0.0
300.0,-300.0,-70933.93,0.0
300.0,-300.0,-57293.52,0.0
300.0,-300.0,-43434.99,0.0
300.0,-300.0,-29958.66,0.0
300.0,-300.0,-17491.31,0.0
300.0,-300.0,-6595.97,0.0
300.0,-300.0,2289.08,0.0
300.0,-300.0,8898.01,0.0
300.0,-300.0,13171.26,0.0
300.0,-300.0,15257.73,0.0
300.0,-300.0,15492.83,0.0
300.0,-300.0,14349.96,0.0
300.0,-300.0,12381.02,0.0
300.0,-300.0,10143.5,0.0
300.0,-300.0,8145.11,0.0
300.0,-300.0,6783.55,0.0
300.0,-300.0,6319.76,0.0
300.0,-300.0,6864.56,0.0
300.0,-300.0,8391.15,0.0
300.0,-300.0,10761.28,0.0
300.0,-300.0,13762.49,0.0
300.0,-300.0,17147.77,0.0
300.0,-300.0,20672.13,0.0
300.0,-300.0,24119.48,0.0
300.0,-300.0,27347.67,0.0
300.0,-300.0,30123.07,0.0
300.0,-300.0,32674.29,0.0
300.0,-300.0,34685.23,0.0
300.0,-300.0,36134.9,0.0
300.0,-300.0,37057.59,0.0
300.0,-300.0,37546.55,0.0
300.0,-300.0,37658.27,0.0
300.0,-300.0,37331.41,0.0
300.0,-300.0,36516.66,0.0
300.0,-300.0,35174.81,0.0
300.0,-300.0,33405.17,0.0
300.0,-300.0,31234.1,0.0
300.0,-300.0,28747.35,0.0
300.0,-300.0,26055.14,0.0
300.0,-300.0,23283.42,0.0
300.0,-300.0,20561.1,0.0
300.0,-300.0,17982.82,0.0
300.0,-300.0,15605.83,0.0
300.0,-300.0,13468.69,0.0
300.0,-300.0,11522.43,0.0
300.0,-300.0,9925.15,0.0
300.0,-300.0,8468.43,0.0
300.0,-300.0,7138.37,0.0
300.0,-300.0,5926.02,0.0
300.0,-300.0,4837.37,0.0
300.0,-300.0,3875.84,0.0
300.0,-300.0,2984.85,0.0
300.0,-300.0,2200.3,0.0
300.0,-300.0,1534.78,0.0
300.0,-300.0,952.18,0.0
300.0,-300.0,467.51,0.0
300.0,-300.0,25.63,0.0
300.0,-300.0,-376.71,0.0
300.0,-300.0,-739.32,0.0
300.0,-300.0,-1062.23,0.0
300.0,-300.0,-1342.65,0.0
300.0,-300.0,-1578.24,0.0
300.0,-300.0,-1765.75,0.0
300.0,-300.0,-1908.12,0.0
300.0,-300.0,-1983.29,0.0
300.0,-300.0,-2011.04,0.0
300.0,-300.0,-1992.08,0.0
300.0,-300.0,-1931.45,0.0
300.0,-300.0,-1838.48,0.0
300.0,-300.0,-1726.29,0.0
300.0,-300.0,-1609.53,0.0
300.0,-300.0,-1506.07,0.0
300.0,-300.0,-1428.59,0.0
300.0,-300.0,-1390.3,0.0
300.0,-300.0,-1389.31,0.0
300.0,-300.0,-1432.6,0.0
300.0,-300.0,-1511.83,0.0
300.0,-300.0,-1613.65,0.0
300.0,-300.0,-1720.72,0.0
300.0,-300.0,-1815.2,0.0
300.0,-300.0,-1879.95,0.0
300.0,-300.0,-1893.51,0.0
300.0,-300.0,-1853.79,0.0
300.0,-300.0,-1756.24,0.0
300.0,-300.0,-1601.93,0.0
300.0,-300.0,-1403.86,0.0
300.0,-300.0,-1177.35,0.0
300.0,-300.0,-941.4,0.0
300.0,-300.0,-715.06,0.0
300.0,-300.0,-517.39,0.0
300.0,-300.0,-363.16,0.0
300.0,-300.0,-261.54,0.0
300.0,-300.0,-215.46,0.0
300.0,-300.0,-219.76,0.0
300.0,-300.0,-273.8,0.0
300.0,-300.0,-357.12,0.0
300.0,-300.0,-454.24,0.0
300.0,-300.0,-549.73,0.0
300.0,-300.0,-630.56,0.0
300.0,-300.0,-685.64,0.0
300.0,-300.0,-708.71,0.0
300.0,-300.0,-699.36,0.0
300.0,-300.0,-657.89,0.0
300.0,-300.0,-591.37,0.0
300.0,-300.0,-505.43,0.0
300.0,-300.0,-410.18,0.0
300.0,-300.0,-314.18,0.0
300.0,-300.0,-223.32,0.0
300.0,-300.0,-141.65,0.0
300.0,-300.0,-70.69,0.0
300.0,-300.0,-10.04,0.0
300.0,-300.0,40.16,0.0
300.0,-300.0,82.47,0.0
300.0,-300.0,116.28,0.0
300.0,-300.0,143.2,0.0
300.0,-300.0,158.32,0.0
300.0,-300.0,157.02,0.0
300.0,-300.0,133.63,0.0
300.0,-300.0,81.66,0.0
300.0,-300.0,-4.34,0.0
300.0,-300.0,-127.96,0.0
300.0,-300.0,-291.95,0.0
300.0,-300.0,-493.89,0.0
300.0,-300.0,-728.41,0.0
300.0,-300.0,-988.36,0.0
300.0,-300.0,-1264.46,0.0
300.0,-300.0,-1546.04,0.0
300.0,-300.0,-1823.5,0.0
300.0,-300.0,-2088.63,0.0
300.0,-300.0,-2335.07,0.0
300.0,-300.0,-2559.39,0.0
300.0,-300.0,-2761.43,0.0
300.0,-300.0,-2941.88,0.0
300.0,-300.0,-3101.0,0.0
300.0,-300.0,-3241.59,0.0
300.0,-300.0,-3364.2,0.0
300.0,-300.0,-3466.79,0.0
300.0,-300.0,-3547.4,0.0
300.0,-300.0,-3602.44,0.0
300.0,-300.0,-3627.91,0.0
300.0,-300.0,-3622.17,0.0
300.0,-300.0,-3583.22,0.0
300.0,-300.0,-3513.68,0.0
300.0,-300.0,-3418.29,0.0
300.0,-300.0,-3305.94,0.0
300.0,-300.0,-3187.37,0.0
300.0,-300.0,-3073.73,0.0
300.0,-300.0,-2977.43,0.0
300.0,-300.0,-2907.71,0.0
300.0,-300.0,-2872.11,0.0
300.0,-300.0,-2873.99,0.0
300.0,-300.0,-2907.77,0.0
300.0,-300.0,-2965.9,0.0
300.0,-300.0,-3034.97,0.0
300.0,-300.0,-3100.18,0.0
300.0,-300.0,-3146.52,0.0
300.0,-300.0,-3159.39,0.0
300.0,-300.0,-3128.96,0.0
300.0,-300.0,-3049.12,0.0
300.0,-300.0,-2920.75,0.0
300.0,-300.0,-2750.79,0.0
300.0,-300.0,-2550.46,0.0
300.0,-300.0,-2333.61,0.0
300.0,-300.0,-2117.59,0.0
300.0,-300.0,-1918.38,0.0
300.0,-300.0,-1749.15,0.0
300.0,-300.0,-1618.22,0.0
300.0,-300.0,-1528.61,0.0
300.0,-300.0,-1477.9,0.0
300.0,-300.0,-1458.45,0.0
300.0,-300.0,-1457.99,0.0
300.0,-300.0,-1462.33,0.0
300.0,-300.0,-1463.89,0.0
300.0,-300.0,-1443.39,0.0
300.0,-300.0,-1393.6,0.0
300.0,-300.0,-1310.36,0.0
300.0,-300.0,-1194.43,0.0
300.0,-300.0,-1049.8,0.0
300.0,-300.0,-883.55,0.0
300.0,-300.0,-705.47,0.0
300.0,-300.0,-523.7,0.0
300.0,-300.0,-349.23,0.0
300.0,-300.0,-188.72,0.0
300.0,-300.0,-47.91,0.0
300.0,-300.0,70.58,0.0
300.0,-300.0,166.33,0.0
300.0,-300.0,240.31,0.0
300.0,-300.0,294.26,0.0
300.0,-300.0,329.32,0.0
300.0,-300.0,346.71,0.0
300.0,-300.0,345.18,0.0
300.0,-300.0,322.84,0.0
300.0,-300.0,278.8,0.0
300.0,-300.0,208.05,0.0
300.0,-300.0,108.76,0.0
300.0,-300.0,-19.84,0.0
300.0,-300.0,-176.7,0.0
300.0,-300.0,-358.54,0.0
300.0,-300.0,-560.17,0.0
300.0,-300.0,-775.43,0.0
300.0,-300.0,-994.81,0.0
300.0,-300.0,-1211.83,0.0
300.0,-300.0,-1417.55,0.0
300.0,-300.0,-1607.77,0.0
300.0,-300.0,-1778.8,0.0
300.0,-300.0,-1929.76,0.0
300.0,-300.0,-2061.07,0.0
300.0,-300.0,-2174.51,0.0
300.0,-300.0,-2272.69,0.0
300.0,-300.0,-2357.95,0.0
300.0,-300.0,-2430.05,0.0
300.0,-300.0,-2489.59,0.0
300.0,-300.0,-2533.68,0.0
300.0,-300.0,-2560.13,0.0
300.0,-300.0,-2566.49,0.0
300.0,-300.0,-2551.11,0.0
300.0,-300.0,-2513.19,0.0
300.0,-300.0,-2455.85,0.0
300.0,-300.0,-2383.5,0.0
300.0,-300.0,-2305.29,0.0
300.0,-300.0,-2229.31,0.0
300.0,-300.0,-2165.8,0.0
300.0,-300.0,-2122.14,0.0
300.0,-300.0,-2103.75,0.0
300.0,-300.0,-2112.09,0.0
300.0,-300.0,-2144.75,0.0
300.0,-300.0,-2194.11,0.0
300.0,-300.0,-2251.06,0.0
300.0,-300.0,-2303.21,0.0
300.0,-300.0,-2334.6,0.0
300.0,-300.0,-2340.21,0.0
300.0,-300.0,-2310.46,0.0
300.0,-300.0,-2244.31,0.0
300.0,-300.0,-2144.24,0.0
300.0,-300.0,-2017.29,0.0
300.0,-300.0,-1874.21,0.0
300.0,-300.0,-1726.69,0.0
300.0,-300.0,-1587.66,0.0
300.0,-300.0,-1466.28,0.0
300.0,-300.0,-1367.0,0.0
300.0,-300.0,-1294.39,0.0
300.0,-300.0,-1242.64,0.0
300.0,-300.0,-1208.15,0.0
300.0,-300.0,-1181.63,0.0
300.0,-300.0,-1153.46,0.0
300.0,-300.0,-1114.03,0.0
300.0,-300.0,-1056.12,0.0
300.0,-300.0,-976.43,0.0
300.0,-300.0,-874.19,0.0
300.0,-300.0,-754.34,0.0
300.0,-300.0,-622.64,0.0
300.0,-300.0,-486.06,0.0
300.0,-300.0,-353.42,0.0
300.0,-300.0,-231.03,0.0
300.0,-300.0,-124.07,0.0
300.0,-300.0,-35.13,0.0
300.0,-300.0,35.25,0.0
300.0,-300.0,87.52,0.0
300.0,-300.0,122.42,0.0
300.0,-300.0,141.96,0.0
300.0,-300.0,146.23,0.0
300.0,-300.0,132.57,0.0
300.0,-300.0,100.28,0.0
300.0,-300.0,44.85,0.0
300.0,-300.0,-37.79,0.0
300.0,-300.0,-150.92,0.0
300.0,-300.0,-295.93,0.0
300.0,-300.0,-472.85,0.0
300.0,-300.0,-679.33,0.0
300.0,-300.0,-908.94,0.0
300.0,-300.0,-1153.98,0.0
300.0,-300.0,-1407.72,0.0
300.0,-300.0,-1659.46,0.0
300.0,-300.0,-1902.58,0.0
300.0,-300.0,-2130.58,0.0
300.0,-300.0,-2339.73,0.0
300.0,-300.0,-2528.39,0.0
300.0,-300.0,-2697.14,0.0
300.0,-300.0,-2847.55,0.0
300.0,-300.0,-2981.96,0.0
300.0,-300.0,-3101.37,0.0
300.0,-300.0,-3206.68,0.0
300.0,-300.0,-3296.61,0.0
300.0,-300.0,-3369.72,0.0
300.0,-300.0,-3421.55,0.0
300.0,-300.0,-3448.79,0.0
300.0,-300.0,-3448.14,0.0
300.0,-300.0,-3418.42,0.0
300.0,-300.0,-3360.71,0.0
300.0,-300.0,-3280.19,0.0
300.0,-300.0,-3181.66,0.0
300.0,-300.0,-3076.13,0.0
300.0,-300.0,-2973.03,0.0
300.0,-300.0,-2883.16,0.0
300.0,-300.0,-2814.85,0.0
300.0,-300.0,-2774.77,0.0
300.0,-300.0,-2764.76,0.0
300.0,-300.0,-2777.6,0.0
300.0,-300.0,-2808.38,0.0
300.0,-300.0,-2845.88,0.0
300.0,-300.0,-2875.55,0.0
300.0,-300.0,-2885.41,0.0
300.0,-300.0,-2863.91,0.0
300.0,-300.0,-2802.92,0.0
300.0,-300.0,-2699.07,0.0
300.0,-300.0,-2555.04,0.0
300.0,-300.0,-2377.7,0.0
300.0,-300.0,-2180.19,0.0
300.0,-300.0,-1974.89,0.0
300.0,-300.0,-1777.82,0.0
300.0,-300.0,-1600.59,0.0
300.0,-300.0,-1454.59,0.0
300.0,-300.0,-1344.57,0.0
300.0,-300.0,-1271.16,0.0
300.0,-300.0,-1229.71,0.0
300.0,-300.0,-1211.21,0.0
300.0,-300.0,-1203.8,0.0
300.0,-300.0,-1195.95,0.0
300.0,-300.0,-1175.39,0.0
300.0,-300.0,-1133.17,0.0
300.0,-300.0,-1068.39,0.0
300.0,-300.0,-975.69,0.0
300.0,-300.0,-859.46,0.0
300.0,-300.0,-726.51,0.0
300.0,-300.0,-585.78,0.0
300.0,-300.0,-445.77,0.0
300.0,-300.0,-314.58,0.0
300.0,-300.0,-198.56,0.0
300.0,-300.0,-100.76,0.0
300.0,-300.0,-22.44,0.0
300.0,-300.0,35.59,0.0
300.0,-300.0,77.71,0.0
300.0,-300.0,105.75,0.0
300.0,-300.0,121.63,0.0
300.0,-300.0,125.84,0.0
300.0,-300.0,116.82,0.0
300.0,-300.0,91.91,0.0
300.0,-300.0,45.5,0.0
300.0,-300.0,-26.29,0.0
300.0,-300.0,-128.42,0.0
300.0,-300.0,-262.89,0.0
300.0,-300.0,-430.58,0.0
300.0,-300.0,-628.74,0.0
300.0,-300.0,-852.12,0.0
300.0,-300.0,-1093.13,0.0
300.0,-300.0,-1342.44,0.0
300.0,-300.0,-1590.9,0.0
300.0,-300.0,-1830.1,0.0
300.0,-300.0,-2053.89,0.0
300.0,-300.0,-2256.22,0.0
300.0,-300.0,-2436.52,0.0
300.0,-300.0,-2595.1,0.0
300.0,-300.0,-2733.66,0.0
300.0,-300.0,-2855.12,0.0
300.0,-300.0,-2961.71,0.0
300.0,-300.0,-3055.1,0.0
300.0,-300.0,-3135.67,0.0
300.0,-300.0,-3201.46,0.0
300.0,-300.0,-3249.35,0.0
300.0,-300.0,-3275.06,0.0
300.0,-300.0,-3276.41,0.0
300.0,-300.0,-3252.1,0.0
300.0,-300.0,-3202.25,0.0
300.0,-300.0,-3130.87,0.0
300.0,-300.0,-3043.64,0.0
300.0,-300.0,-2949.94,0.0
300.0,-300.0,-2860.91,0.0
300.0,-300.0,-2785.21,0.0
300.0,-300.0,-2732.3,0.0
300.0,-300.0,-2707.64,0.0
300.0,-300.0,-2713.78,0.0
300.0,-300.0,-2749.42,0.0
300.0,-300.0,-2808.47,0.0
300.0,-300.0,-2882.31,0.0
300.0,-300.0,-2958.97,0.0
300.0,-300.0,-3025.9,0.0
300.0,-300.0,-3061.61,0.0
300.0,-300.0,-3062.12,0.0
300.0,-300.0,-3017.64,0.0
300.0,-300.0,-2925.51,0.0
300.0,-300.0,-2785.86,0.0
300.0,-300.0,-2606.68,0.0
300.0,-300.0,-2397.96,0.0
300.0,-300.0,-2173.59,0.0
300.0,-300.0,-1948.21,0.0
300.0,-300.0,-1736.77,0.0
300.0,-300.0,-1553.47,0.0
300.0,-300.0,-1405.22,0.0
300.0,-300.0,-1301.52,0.0
300.0,-300.0,-1240.63,0.0
300.0,-300.0,-1217.21,0.0
300.0,-300.0,-1223.41,0.0
300.0,-300.0,-1247.62,0.0
300.0,-300.0,-1276.7,0.0
300.0,-300.0,-1297.92,0.0
300.0,-300.0,-1300.65,0.0
300.0,-300.0,-1277.83,0.0
300.0,-300.0,-1225.54,0.0
300.0,-300.0,-1141.65,0.0
300.0,-300.0,-1031.88,0.0
300.0,-300.0,-902.4,0.0
300.0,-300.0,-762.03,0.0
300.0,-300.0,-619.63,0.0
300.0,-300.0,-483.85,0.0
300.0,-300.0,-361.13,0.0
300.0,-300.0,-255.96,0.0
300.0,-300.0,-170.11,0.0
300.0,-300.0,-103.35,0.0
300.0,-300.0,-52.86,0.0
300.0,-300.0,-16.66,0.0
300.0,-300.0,7.79,0.0
300.0,-300.0,20.47,0.0
300.0,-300.0,20.49,0.0
300.0,-300.0,4.41,0.0
300.0,-300.0,-32.3,0.0
300.0,-300.0,-95.15,0.0
300.0,-300.0,-190.84,0.0
300.0,-300.0,-321.53,0.0
300.0,-300.0,-488.48,0.0
300.0,-300.0,-690.31,0.0
300.0,-300.0,-920.85,0.0
300.0,-300.0,-1172.2,0.0
300.0,-300.0,-1433.81,0.0
300.0,-300.0,-1694.76,0.0
300.0,-300.0,-1944.56,0.0
300.0,-300.0,-2175.05,0.0
300.0,-300.0,-2381.56,0.0
300.0,-300.0,-2560.98,0.0
300.0,-300.0,-2713.82,0.0
300.0,-300.0,-2843.44,0.0
300.0,-300.0,-2953.81,0.0
300.0,-300.0,-3049.32,0.0
300.0,-300.0,-3132.13,0.0
300.0,-300.0,-3203.61,0.0
300.0,-300.0,-3261.83,0.0
300.0,-300.0,-3303.85,0.0
300.0,-300.0,-3326.37,0.0
300.0,-300.0,-3323.68,0.0
300.0,-300.0,-3293.73,0.0
300.0,-300.0,-3235.45,0.0
300.0,-300.0,-3152.71,0.0
300.0,-300.0,-3051.24,0.0
300.0,-300.0,-2939.97,0.0
300.0,-300.0,-2830.36,0.0
300.0,-300.0,-2733.26,0.0
300.0,-300.0,-2659.4,0.0
300.0,-300.0,-2617.47,0.0
300.0,-300.0,-2609.19,0.0
300.0,-300.0,-2633.05,0.0
300.0,-300.0,-2681.04,0.0
300.0,-300.0,-2740.8,0.0
300.0,-300.0,-2797.99,0.0
300.0,-300.0,-2836.38,0.0
300.0,-300.0,-2842.26,0.0
300.0,-300.0,-2804.23,0.0
300.0,-300.0,-2717.0,0.0
300.0,-300.0,-2580.02,0.0
300.0,-300.0,-2400.61,0.0
300.0,-300.0,-2190.87,0.0
300.0,-300.0,-1965.93,0.0
300.0,-300.0,-1742.81,0.0
300.0,-300.0,-1537.45,0.0
300.0,-300.0,-1363.14,0.0
300.0,-300.0,-1228.67,0.0
300.0,-300.0,-1136.84,0.0
300.0,-300.0,-1084.1,0.0
300.0,-300.0,-1061.43,0.0
300.0,-300.0,-1064.89,0.0
300.0,-300.0,-1073.84,0.0
300.0,-300.0,-1075.75,0.0
300.0,-300.0,-1059.28,0.0
300.0,-300.0,-1017.89,0.0
300.0,-300.0,-948.12,0.0
300.0,-300.0,-851.73,0.0
300.0,-300.0,-733.17,0.0
300.0,-300.0,-600.2,0.0
300.0,-300.0,-462.25,0.0
300.0,-300.0,-327.33,0.0
300.0,-300.0,-204.26,0.0
300.0,-300.0,-99.16,0.0
300.0,-300.0,-14.56,0.0
300.0,-300.0,48.69,0.0
300.0,-300.0,92.69,0.0
300.0,-300.0,119.68,0.0
300.0,-300.0,132.43,0.0
300.0,-300.0,131.12,0.0
300.0,-300.0,118.42,0.0
300.0,-300.0,92.74,0.0
300.0,-300.0,52.42,0.0
300.0,-300.0,-7.8,0.0
300.0,-300.0,-90.25,0.0
300.0,-300.0,-198.25,0.0
300.0,-300.0,-332.72,0.0
300.0,-300.0,-492.64,0.0
300.0,-300.0,-674.91,0.0
300.0,-300.0,-875.34,0.0
300.0,-300.0,-1085.8,0.0
300.0,-300.0,-1299.11,0.0
300.0,-300.0,-1507.6,0.0
300.0,-300.0,-1705.21,0.0
300.0,-300.0,-1887.08,0.0
300.0,-300.0,-2050.64,0.0
300.0,-300.0,-2194.97,0.0
300.0,-300.0,-2321.25,0.0
300.0,-300.0,-2431.09,0.0
300.0,-300.0,-2526.47,0.0
300.0,-300.0,-2609.87,0.0
300.0,-300.0,-2679.58,0.0
300.0,-300.0,-2735.72,0.0
300.0,-300.0,-2776.84,0.0
300.0,-300.0,-2798.57,0.0
300.0,-300.0,-2799.33,0.0
300.0,-300.0,-2776.48,0.0
300.0,-300.0,-2731.23,0.0
300.0,-300.0,-2665.9,0.0
300.0,-300.0,-2585.45,0.0
300.0,-300.0,-2495.32,0.0
300.0,-300.0,-2401.95,0.0
300.0,-300.0,-2313.14,0.0
300.0,-300.0,-2234.7,0.0
300.0,-300.0,-2170.39,0.0
300.0,-300.0,-2121.9,0.0
300.0,-300.0,-2087.69,0.0
300.0,-300.0,-2064.6,0.0
300.0,-300.0,-2046.67,0.0
300.0,-300.0,-2030.46,0.0
300.0,-300.0,-2010.14,0.0
300.0,-300.0,-1981.17,0.0
300.0,-300.0,-1942.76,0.0
300.0,-300.0,-1894.3,0.0
300.0,-300.0,-1836.95,0.0
300.0,-300.0,-1773.43,0.0
300.0,-300.0,-1705.99,0.0
300.0,-300.0,-1637.6,0.0
300.0,-300.0,-1567.68,0.0
300.0,-300.0,-1497.38,0.0
300.0,-300.0,-1424.92,0.0
300.0,-300.0,-1346.85,0.0
300.0,-300.0,-1260.99,0.0
300.0,-300.0,-1165.32,0.0
300.0,-300.0,-1059.14,0.0
300.0,-300.0,-942.92,0.0
300.0,-300.0,-818.66,0.0
300.0,-300.0,-690.1,0.0
300.0,-300.0,-561.73,0.0
300.0,-300.0,-439.69,0.0
300.0,-300.0,-328.74,0.0
300.0,-300.0,-234.48,0.0
300.0,-300.0,-156.9,0.0
300.0,-300.0,-97.86,0.0
300.0,-300.0,-56.16,0.0
300.0,-300.0,-30.37,0.0
300.0,-300.0,-17.87,0.0
300.0,-300.0,-17.48,0.0
300.0,-300.0,-28.57,0.0
300.0,-300.0,-52.8,0.0
300.0,-300.0,-93.32,0.0
300.0,-300.0,-152.94,0.0
300.0,-300.0,-235.49,0.0
300.0,-300.0,-344.69,0.0
300.0,-300.0,-481.76,0.0
300.0,-300.0,-645.95,0.0
300.0,-300.0,-834.14,0.0
300.0,-300.0,-1040.9,0.0
300.0,-300.0,-1258.63,0.0
300.0,-300.0,-1480.12,0.0
300.0,-300.0,-1696.57,0.0
300.0,-300.0,-1901.45,0.0
300.0,-300.0,-2089.72,0.0
300.0,-300.0,-2258.83,0.0
300.0,-300.0,-2408.28,0.0
300.0,-300.0,-2539.52,0.0
300.0,-300.0,-2654.66,0.0
300.0,-300.0,-2756.91,0.0
300.0,-300.0,-2847.47,0.0
300.0,-300.0,-2927.11,0.0
300.0,-300.0,-2992.81,0.0
300.0,-300.0,-3044.87,0.0
300.0,-300.0,-3078.74,0.0
300.0,-300.0,-3092.13,0.0
300.0,-300.0,-3081.96,0.0
300.0,-300.0,-3048.47,0.0
300.0,-300.0,-2993.47,0.0
300.0,-300.0,-2922.71,0.0
300.0,-300.0,-2842.54,0.0
300.0,-300.0,-2761.78,0.0
300.0,-300.0,-2689.03,0.0
300.0,-300.0,-2632.84,0.0
300.0,-300.0,-2599.25,0.0
300.0,-300.0,-2590.56,0.0
300.0,-300.0,-2604.25,0.0
300.0,-300.0,-2635.0,0.0
300.0,-300.0,-2673.68,0.0
300.0,-300.0,-2702.57,0.0
300.0,-300.0,-2716.08,0.0
300.0,-300.0,-2701.77,0.0
300.0,-300.0,-2652.34,0.0
300.0,-300.0,-2563.84,0.0
300.0,-300.0,-2438.71,0.0
300.0,-300.0,-2283.45,0.0
300.0,-300.0,-2108.23,0.0
300.0,-300.0,-1926.7,0.0
300.0,-300.0,-1751.77,0.0
300.0,-300.0,-1595.44,0.0
300.0,-300.0,-1466.61,0.0
300.0,-300.0,-1369.81,0.0
300.0,-300.0,-1304.46,0.0
300.0,-300.0,-1266.12,0.0
300.0,-300.0,-1245.92,0.0
300.0,-300.0,-1232.72,0.0
300.0,-300.0,-1214.67,0.0
300.0,-300.0,-1181.61,0.0
300.0,-300.0,-1126.34,0.0
300.0,-300.0,-1046.45,0.0
300.0,-300.0,-941.91,0.0
300.0,-300.0,-818.47,0.0
300.0,-300.0,-681.6,0.0
300.0,-300.0,-540.96,0.0
300.0,-300.0,-405.34,0.0
300.0,-300.0,-281.9,0.0
300.0,-300.0,-175.42,0.0
300.0,-300.0,-88.4,0.0
300.0,-300.0,-20.07,0.0
300.0,-300.0,32.15,0.0
300.0,-300.0,71.13,0.0
300.0,-300.0,98.97,0.0
300.0,-300.0,118.51,0.0
300.0,-300.0,129.1,0.0
300.0,-300.0,128.29,0.0
300.0,-300.0,111.28,0.0
300.0,-300.0,72.09,0.0
300.0,-300.0,5.0,0.0
300.0,-300.0,-96.06,0.0
300.0,-300.0,-232.92,0.0
300.0,-300.0,-405.5,0.0
300.0,-300.0,-611.0,0.0
300.0,-300.0,-842.7,0.0
300.0,-300.0,-1092.1,0.0
300.0,-300.0,-1348.84,0.0
300.0,-300.0,-1603.87,0.0
300.0,-300.0,-1848.15,0.0
300.0,-300.0,-2075.64,0.0
300.0,-300.0,-2283.59,0.0
300.0,-300.0,-2470.34,0.0
300.0,-300.0,-2637.25,0.0
300.0,-300.0,-2787.16,0.0
300.0,-300.0,-2922.69,0.0
300.0,-300.0,-3046.44,0.0
300.0,-300.0,-3158.77,0.0
300.0,-300.0,-3258.85,0.0
300.0,-300.0,-3342.74,0.0
300.0,-300.0,-3406.19,0.0
300.0,-300.0,-3446.37,0.0
300.0,-300.0,-3457.73,0.0
300.0,-300.0,-3439.55,0.0
300.0,-300.0,-3393.29,0.0
300.0,-300.0,-3322.47,0.0
300.0,-300.0,-3235.74,0.0
300.0,-300.0,-3142.41,0.0
300.0,-300.0,-3053.21,0.0
300.0,-300.0,-2978.38,0.0
300.0,-300.0,-2926.01,0.0
300.0,-300.0,-2903.16,0.0
300.0,-300.0,-2910.68,0.0
300.0,-300.0,-2945.44,0.0
300.0,-300.0,-3000.76,0.0
300.0,-300.0,-3066.52,0.0
300.0,-300.0,-3130.14,0.0
300.0,-300.0,-3178.18,0.0
300.0,-300.0,-3198.7,0.0
300.0,-300.0,-3182.69,0.0
300.0,-300.0,-3124.3,0.0
300.0,-300.0,-3017.53,0.0
300.0,-300.0,-2871.96,0.0
300.0,-300.0,-2691.36,0.0
300.0,-300.0,-2487.79,0.0
300.0,-300.0,-2274.36,0.0
300.0,-300.0,-2064.07,0.0
300.0,-300.0,-1869.67,0.0
300.0,-300.0,-1701.53,0.0
300.0,-300.0,-1566.57,0.0
300.0,-300.0,-1467.38,0.0
300.0,-300.0,-1403.42,0.0
300.0,-300.0,-1367.87,0.0
300.0,-300.0,-1358.85,0.0
300.0,-300.0,-1360.36,0.0
300.0,-300.0,-1362.74,0.0
300.0,-300.0,-1357.18,0.0
300.0,-300.0,-1336.57,0.0
300.0,-300.0,-1296.12,0.0
300.0,-300.0,-1233.63,0.0
300.0,-300.0,-1151.51,0.0
300.0,-300.0,-1051.06,0.0
300.0,-300.0,-938.39,0.0
300.0,-300.0,-820.27,0.0
300.0,-300.0,-702.27,0.0
300.0,-300.0,-589.95,0.0
300.0,-300.0,-487.07,0.0
300.0,-300.0,-395.66,0.0
300.0,-300.0,-315.95,0.0
300.0,-300.0,-246.84,0.0
300.0,-300.0,-187.85,0.0
300.0,-300.0,-136.54,0.0
300.0,-300.0,-93.51,0.0
300.0,-300.0,-59.2,0.0
300.0,-300.0,-37.7,0.0
300.0,-300.0,-33.09,0.0
300.0,-300.0,-51.36,0.0
300.0,-300.0,-97.65,0.0
300.0,-300.0,-176.43,0.0
300.0,-300.0,-290.24,0.0
300.0,-300.0,-440.75,0.0
300.0,-300.0,-623.03,0.0
300.0,-300.0,-832.03,0.0
300.0,-300.0,-1059.77,0.0
300.0,-300.0,-1296.22,0.0
300.0,-300.0,-1531.89,0.0
300.0,-300.0,-1758.36,0.0
300.0,-300.0,-1968.69,0.0
300.0,-300.0,-2159.08,0.0
300.0,-300.0,-2327.88,0.0
300.0,-300.0,-2476.78,0.0
300.0,-300.0,-2608.08,0.0
300.0,-300.0,-2724.08,0.0
300.0,-300.0,-2828.05,0.0
300.0,-300.0,-2921.28,0.0
300.0,-300.0,-3002.53,0.0
300.0,-300.0,-3069.74,0.0
300.0,-300.0,-3118.29,0.0
300.0,-300.0,-3144.05,0.0
300.0,-300.0,-3143.19,0.0
300.0,-300.0,-3113.68,0.0
300.0,-300.0,-3057.27,0.0
300.0,-300.0,-2976.2,0.0
300.0,-300.0,-2878.64,0.0
300.0,-300.0,-2773.78,0.0
300.0,-300.0,-2672.11,0.0
300.0,-300.0,-2583.85,0.0
300.0,-300.0,-2517.97,0.0
300.0,-300.0,-2480.35,0.0
300.0,-300.0,-2469.47,0.0
300.0,-300.0,-2482.93,0.0
300.0,-300.0,-2512.38,0.0
300.0,-300.0,-2544.75,0.0
300.0,-300.0,-2569.43,0.0
300.0,-300.0,-2572.86,0.0
300.0,-300.0,-2544.92,0.0
300.0,-300.0,-2479.29,0.0
300.0,-300.0,-2374.12,0.0
300.0,-300.0,-2233.55,0.0
300.0,-300.0,-2066.93,0.0
300.0,-300.0,-1884.74,0.0
300.0,-300.0,-1701.93,0.0
300.0,-300.0,-1529.75,0.0
300.0,-300.0,-1380.02,0.0
300.0,-300.0,-1260.21,0.0
300.0,-300.0,-1172.55,0.0
300.0,-300.0,-1114.65,0.0
300.0,-300.0,-1079.83,0.0
300.0,-300.0,-1058.66,0.0
300.0,-300.0,-1041.29,0.0
300.0,-300.0,-1015.65,0.0
300.0,-300.0,-972.8,0.0
300.0,-300.0,-912.57,0.0
300.0,-300.0,-827.32,0.0
300.0,-300.0,-721.11,0.0
300.0,-300.0,-599.84,0.0
300.0,-300.0,-471.32,0.0
300.0,-300.0,-343.77,0.0
300.0,-300.0,-225.0,0.0
300.0,-300.0,-120.48,0.0
300.0,-300.0,-34.87,0.0
300.0,-300.0,30.4,0.0
300.0,-300.0,76.41,0.0
300.0,-300.0,105.55,0.0
300.0,-300.0,120.23,0.0
300.0,-300.0,122.7,0.0
300.0,-300.0,114.33,0.0
300.0,-300.0,95.02,0.0
300.0,-300.0,62.83,0.0
300.0,-300.0,14.71,0.0
300.0,-300.0,-54.48,0.0
300.0,-300.0,-146.12,0.0
300.0,-300.0,-264.85,0.0
300.0,-300.0,-410.74,0.0
300.0,-300.0,-582.39,0.0
300.0,-300.0,-775.62,0.0
300.0,-300.0,-984.6,0.0
300.0,-300.0,-1201.68,0.0
300.0,-300.0,-1420.09,0.0
300.0,-300.0,-1631.86,0.0
300.0,-300.0,-1831.08,0.0
300.0,-300.0,-2012.57,0.0
300.0,-300.0,-2175.41,0.0
300.0,-300.0,-2319.13,0.0
300.0,-300.0,-2444.88,0.0
300.0,-300.0,-2554.72,0.0
300.0,-300.0,-2650.98,0.0
300.0,-300.0,-2735.26,0.0
300.0,-300.0,-2808.78,0.0
300.0,-300.0,-2869.72,0.0
300.0,-300.0,-2916.77,0.0
300.0,-300.0,-2945.66,0.0
300.0,-300.0,-2955.74,0.0
300.0,-300.0,-2944.52,0.0
300.0,-300.0,-2912.4,0.0
300.0,-300.0,-2861.37,0.0
300.0,-300.0,-2795.95,0.0
300.0,-300.0,-2722.48,0.0
300.0,-300.0,-2650.29,0.0
300.0,-300.0,-2585.95,0.0
300.0,-300.0,-2538.41,0.0
300.0,-300.0,-2512.43,0.0
300.0,-300.0,-2511.48,0.0
300.0,-300.0,-2535.2,0.0
300.0,-300.0,-2579.66,0.0
300.0,-300.0,-2637.11,0.0
300.0,-300.0,-2697.59,0.0
300.0,-300.0,-2749.02,0.0
300.0,-300.0,-2772.55,0.0
300.0,-300.0,-2764.98,0.0
300.0,-300.0,-2716.36,0.0
300.0,-300.0,-2623.73,0.0
300.0,-300.0,-2488.05,0.0
300.0,-300.0,-2316.0,0.0
300.0,-300.0,-2117.44,0.0
300.0,-300.0,-1905.85,0.0
300.0,-300.0,-1695.56,0.0
300.0,-300.0,-1501.04,0.0
300.0,-300.0,-1333.62,0.0
300.0,-300.0,-1201.12,0.0
300.0,-300.0,-1109.25,0.0
300.0,-300.0,-1055.81,0.0
300.0,-300.0,-1035.33,0.0
300.0,-300.0,-1038.23,0.0
300.0,-300.0,-1052.12,0.0
300.0,-300.0,-1064.55,0.0
300.0,-300.0,-1064.55,0.0
300.0,-300.0,-1042.72,0.0
300.0,-300.0,-994.52,0.0
300.0,-300.0,-918.77,0.0
300.0,-300.0,-816.27,0.0
300.0,-300.0,-694.6,0.0
300.0,-300.0,-561.39,0.0
300.0,-300.0,-425.23,0.0
300.0,-300.0,-294.84,0.0
300.0,-300.0,-176.38,0.0
300.0,-300.0,-74.71,0.0
300.0,-300.0,8.62,0.0
300.0,-300.0,73.39,0.0
300.0,-300.0,121.5,0.0
300.0,-300.0,156.24,0.0
300.0,-300.0,178.85,0.0
300.0,-300.0,190.53,0.0
300.0,-300.0,189.84,0.0
300.0,-300.0,173.94,0.0
300.0,-300.0,138.12,0.0
300.0,-300.0,76.66,0.0
300.0,-300.0,-16.63,0.0
300.0,-300.0,-144.42,0.0
300.0,-300.0,-308.42,0.0
300.0,-300.0,-508.11,0.0
300.0,-300.0,-737.05,0.0
300.0,-300.0,-988.48,0.0
300.0,-300.0,-1252.28,0.0
300.0,-300.0,-1518.28,0.0
300.0,-300.0,-1776.04,0.0
300.0,-300.0,-2017.18,0.0
300.0,-300.0,-2237.45,0.0
300.0,-300.0,-2432.82,0.0
300.0,-300.0,-2604.02,0.0
300.0,-300.0,-2753.48,0.0
300.0,-300.0,-2883.94,0.0
300.0,-300.0,-2999.89,0.0
300.0,-300.0,-3103.21,0.0
300.0,-300.0,-3194.95,0.0
300.0,-300.0,-3272.73,0.0
300.0,-300.0,-3333.8,0.0
300.0,-300.0,-3374.67,0.0
300.0,-300.0,-3390.64,0.0
300.0,-300.0,-3378.84,0.0
300.0,-300.0,-3339.1,0.0
300.0,-300.0,-3274.27,0.0
300.0,-300.0,-3190.56,0.0
300.0,-300.0,-3095.9,0.0
300.0,-300.0,-3001.23,0.0
300.0,-300.0,-2916.99,0.0
300.0,-300.0,-2853.19,0.0
300.0,-300.0,-2817.48,0.0
300.0,-300.0,-2813.77,0.0
300.0,-300.0,-2839.93,0.0
300.0,-300.0,-2892.69,0.0
300.0,-300.0,-2963.04,0.0
300.0,-300.0,-3040.53,0.0
300.0,-300.0,-3112.69,0.0
300.0,-300.0,-3167.22,0.0
300.0,-300.0,-3193.27,0.0
300.0,-300.0,-3182.99,0.0
300.0,-300.0,-3122.96,0.0
300.0,-300.0,-3021.29,0.0
300.0,-300.0,-2876.33,0.0
300.0,-300.0,-2696.24,0.0
300.0,-300.0,-2489.22,0.0
300.0,-300.0,-2267.09,0.0
300.0,-300.0,-2041.82,0.0
300.0,-300.0,-1825.71,0.0
300.0,-300.0,-1629.74,0.0
300.0,-300.0,-1463.08,0.0
300.0,-300.0,-1332.26,0.0
300.0,-300.0,-1237.5,0.0
300.0,-300.0,-1184.86,0.0
300.0,-300.0,-1162.69,0.0
300.0,-300.0,-1164.11,0.0
300.0,-300.0,-1180.39,0.0
300.0,-300.0,-1201.05,0.0
300.0,-300.0,-1215.52,0.0
300.0,-300.0,-1214.59,0.0
300.0,-300.0,-1191.1,0.0
300.0,-300.0,-1142.51,0.0
300.0,-300.0,-1065.26,0.0
300.0,-300.0,-963.88,0.0
300.0,-300.0,-843.31,0.0
300.0,-300.0,-710.9,0.0
300.0,-300.0,-575.31,0.0
300.0,-300.0,-444.06,0.0
300.0,-300.0,-323.9,0.0
300.0,-300.0,-219.01,0.0
300.0,-300.0,-131.84,0.0
300.0,-300.0,-62.79,0.0
300.0,-300.0,-9.65,0.0
300.0,-300.0,29.65,0.0
300.0,-300.0,56.79,0.0
300.0,-300.0,71.49,0.0
300.0,-300.0,72.83,0.0
300.0,-300.0,57.39,0.0
300.0,-300.0,19.71,0.0
300.0,-300.0,-44.89,0.0
300.0,-300.0,-141.95,0.0
300.0,-300.0,-275.61,0.0
300.0,-300.0,-446.65,0.0
300.0,-300.0,-652.3,0.0
300.0,-300.0,-887.22,0.0
300.0,-300.0,-1142.56,0.0
300.0,-300.0,-1408.16,0.0
300.0,-300.0,-1672.77,0.0
300.0,-300.0,-1926.04,0.0
300.0,-300.0,-2159.82,0.0
300.0,-300.0,-2368.53,0.0
300.0,-300.0,-2550.58,0.0
300.0,-300.0,-2706.09,0.0
300.0,-300.0,-2838.77,0.0
300.0,-300.0,-2952.53,0.0
300.0,-300.0,-3050.76,0.0
300.0,-300.0,-3136.16,0.0
300.0,-300.0,-3208.77,0.0
300.0,-300.0,-3267.13,0.0
300.0,-300.0,-3307.1,0.0
300.0,-300.0,-3324.92,0.0
300.0,-300.0,-3316.39,0.0
300.0,-300.0,-3277.57,0.0
300.0,-300.0,-3210.16,0.0
300.0,-300.0,-3116.9,0.0
300.0,-300.0,-3004.77,0.0
300.0,-300.0,-2883.63,0.0
300.0,-300.0,-2764.65,0.0
300.0,-300.0,-2659.98,0.0
300.0,-300.0,-2579.21,0.0
300.0,-300.0,-2532.12,0.0
300.0,-300.0,-2519.9,0.0
300.0,-300.0,-2540.54,0.0
300.0,-300.0,-2587.03,0.0
300.0,-300.0,-2647.5,0.0
300.0,-300.0,-2707.04,0.0
300.0,-300.0,-2750.45,0.0
300.0,-300.0,-2763.25,0.0
300.0,-300.0,-2735.03,0.0
300.0,-300.0,-2659.02,0.0
300.0,-300.0,-2533.79,0.0
300.0,-300.0,-2366.6,0.0
300.0,-300.0,-2166.84,0.0
300.0,-300.0,-1948.74,0.0
300.0,-300.0,-1728.68,0.0
300.0,-300.0,-1521.93,0.0
300.0,-300.0,-1342.24,0.0
300.0,-300.0,-1198.81,0.0
300.0,-300.0,-1096.13,0.0
300.0,-300.0,-1033.59,0.0
300.0,-300.0,-1004.42,0.0
300.0,-300.0,-997.47,0.0
300.0,-300.0,-1008.63,0.0
300.0,-300.0,-1016.72,0.0
300.0,-300.0,-1011.84,0.0
300.0,-300.0,-985.64,0.0
300.0,-300.0,-934.21,0.0
300.0,-300.0,-856.03,0.0
300.0,-300.0,-754.14,0.0
300.0,-300.0,-634.33,0.0
300.0,-300.0,-503.22,0.0
300.0,-300.0,-370.11,0.0
300.0,-300.0,-241.96,0.0
300.0,-300.0,-125.87,0.0
300.0,-300.0,-26.13,0.0
300.0,-300.0,55.22,0.0
300.0,-300.0,117.93,0.0
300.0,-300.0,163.68,0.0
300.0,-300.0,194.51,0.0
300.0,-300.0,211.81,0.0
300.0,-300.0,216.53,0.0
300.0,-300.0,207.44,0.0
300.0,-300.0,184.94,0.0
300.0,-300.0,142.66,0.0
300.0,-300.0,77.78,0.0
300.0,-300.0,-13.61,0.0
300.0,-300.0,-134.3,0.0
300.0,-300.0,-284.72,0.0
300.0,-300.0,-463.35,0.0
300.0,-300.0,-666.11,0.0
300.0,-300.0,-887.83,0.0
300.0,-300.0,-1120.0,0.0
300.0,-300.0,-1353.4,0.0
300.0,-300.0,-1581.36,0.0
300.0,-300.0,-1796.41,0.0
300.0,-300.0,-1993.74,0.0
300.0,-300.0,-2170.52,0.0
300.0,-300.0,-2326.8,0.0
300.0,-300.0,-2463.69,0.0
300.0,-300.0,-2583.24,0.0
300.0,-300.0,-2688.76,0.0
300.0,-300.0,-2781.83,0.0
300.0,-300.0,-2862.15,0.0
300.0,-300.0,-2929.35,0.0
300.0,-300.0,-2980.88,0.0
300.0,-300.0,-3013.34,0.0
300.0,-300.0,-3023.47,0.0
300.0,-300.0,-3008.86,0.0
300.0,-300.0,-2969.43,0.0
300.0,-300.0,-2906.96,0.0
300.0,-300.0,-2827.46,0.0
300.0,-300.0,-2737.8,0.0
300.0,-300.0,-2647.62,0.0
300.0,-300.0,-2565.65,0.0
300.0,-300.0,-2502.0,0.0
300.0,-300.0,-2463.38,0.0
300.0,-300.0,-2453.22,0.0
300.0,-300.0,-2470.11,0.0
300.0,-300.0,-2509.1,0.0
300.0,-300.0,-2560.91,0.0
300.0,-300.0,-2605.15,0.0
300.0,-300.0,-2636.41,0.0
300.0,-300.0,-2639.35,0.0
300.0,-300.0,-2604.47,0.0
300.0,-300.0,-2526.06,0.0
300.0,-300.0,-2404.15,0.0
300.0,-300.0,-2244.18,0.0
300.0,-300.0,-2055.82,0.0
300.0,-300.0,-1853.16,0.0
300.0,-300.0,-1652.21,0.0
300.0,-300.0,-1467.53,0.0
300.0,-300.0,-1310.78,0.0
300.0,-300.0,-1191.64,0.0
300.0,-300.0,-1112.49,0.0
300.0,-300.0,-1071.27,0.0
300.0,-300.0,-1060.5,0.0
300.0,-300.0,-1069.36,0.0
300.0,-300.0,-1084.32,0.0
300.0,-300.0,-1092.07,0.0
300.0,-300.0,-1082.63,0.0
300.0,-300.0,-1047.28,0.0
300.0,-300.0,-984.78,0.0
300.0,-300.0,-893.88,0.0
300.0,-300.0,-780.51,0.0
300.0,-300.0,-652.54,0.0
300.0,-300.0,-519.19,0.0
300.0,-300.0,-389.91,0.0
300.0,-300.0,-272.05,0.0
300.0,-300.0,-170.99,0.0
300.0,-300.0,-89.61,0.0
300.0,-300.0,-27.21,0.0
300.0,-300.0,16.29,0.0
300.0,-300.0,45.22,0.0
300.0,-300.0,61.8,0.0
300.0,-300.0,68.09,0.0
300.0,-300.0,63.31,0.0
300.0,-300.0,45.42,0.0
300.0,-300.0,10.7,0.0
300.0,-300.0,-46.3,0.0
300.0,-300.0,-131.76,0.0
300.0,-300.0,-247.51,0.0
300.0,-300.0,-397.05,0.0
300.0,-300.0,-578.44,0.0
300.0,-300.0,-788.18,0.0
300.0,-300.0,-1019.38,0.0
300.0,-300.0,-1263.41,0.0
300.0,-300.0,-1510.34,0.0
300.0,-300.0,-1750.93,0.0
300.0,-300.0,-1976.67,0.0
300.0,-300.0,-2182.71,0.0
300.0,-300.0,-2365.62,0.0
300.0,-300.0,-2525.03,0.0
300.0,-300.0,-2663.02,0.0
300.0,-300.0,-2783.37,0.0
300.0,-300.0,-2889.24,0.0
300.0,-300.0,-2983.47,0.0
300.0,-300.0,-3066.76,0.0
300.0,-300.0,-3138.16,0.0
300.0,-300.0,-3195.06,0.0
300.0,-300.0,-3233.21,0.0
300.0,-300.0,-3249.41,0.0
300.0,-300.0,-3239.21,0.0
300.0,-300.0,-3202.39,0.0
300.0,-300.0,-3140.78,0.0
300.0,-300.0,-3059.07,0.0
300.0,-300.0,-2965.46,0.0
300.0,-300.0,-2869.4,0.0
300.0,-300.0,-2782.11,0.0
300.0,-300.0,-2714.26,0.0
300.0,-300.0,-2673.41,0.0
300.0,-300.0,-2664.06,0.0
300.0,-300.0,-2685.65,0.0
300.0,-300.0,-2733.38,0.0
300.0,-300.0,-2797.94,0.0
300.0,-300.0,-2865.99,0.0
300.0,-300.0,-2923.39,0.0
300.0,-300.0,-2956.36,0.0
300.0,-300.0,-2952.98,0.0
300.0,-300.0,-2901.54,0.0
300.0,-300.0,-2803.97,0.0
300.0,-300.0,-2661.37,0.0
300.0,-300.0,-2481.06,0.0
300.0,-300.0,-2276.5,0.0
300.0,-300.0,-2062.17,0.0
300.0,-300.0,-1854.13,0.0
300.0,-300.0,-1666.52,0.0
300.0,-300.0,-1510.72,0.0
300.0,-300.0,-1393.4,0.0
300.0,-300.0,-1316.21,0.0
300.0,-300.0,-1275.93,0.0
300.0,-300.0,-1262.7,0.0
300.0,-300.0,-1273.65,0.0
300.0,-300.0,-1288.06,0.0
300.0,-300.0,-1295.84,0.0
300.0,-300.0,-1287.35,0.0
300.0,-300.0,-1256.8,0.0
300.0,-300.0,-1201.17,0.0
300.0,-300.0,-1121.77,0.0
300.0,-300.0,-1023.96,0.0
300.0,-300.0,-912.9,0.0
300.0,-300.0,-796.37,0.0
300.0,-300.0,-682.83,0.0
300.0,-300.0,-578.06,0.0
300.0,-300.0,-486.71,0.0
300.0,-300.0,-411.45,0.0
300.0,-300.0,-351.89,0.0
300.0,-300.0,-306.53,0.0
300.0,-300.0,-273.06,0.0
300.0,-300.0,-249.66,0.0
300.0,-300.0,-235.43,0.0
300.0,-300.0,-229.29,0.0
300.0,-300.0,-234.26,0.0
300.0,-300.0,-254.12,0.0
300.0,-300.0,-293.75,0.0
300.0,-300.0,-357.46,0.0
300.0,-300.0,-449.36,0.0
300.0,-300.0,-571.36,0.0
300.0,-300.0,-723.52,0.0
300.0,-300.0,-903.14,0.0
300.0,-300.0,-1104.86,0.0
300.0,-300.0,-1320.46,0.0
300.0,-300.0,-1542.28,0.0
300.0,-300.0,-1761.0,0.0
300.0,-300.0,-1969.58,0.0
300.0,-300.0,-2161.71,0.0
300.0,-300.0,-2334.47,0.0
300.0,-300.0,-2486.67,0.0
300.0,-300.0,-2620.18,0.0
300.0,-300.0,-2736.89,0.0
300.0,-300.0,-2839.85,0.0
300.0,-300.0,-2930.09,0.0
300.0,-300.0,-3010.23,0.0
300.0,-300.0,-3078.83,0.0
300.0,-300.0,-3133.48,0.0
300.0,-300.0,-3170.39,0.0
300.0,-300.0,-3185.78,0.0
300.0,-300.0,-3176.43,0.0
300.0,-300.0,-3142.6,0.0
300.0,-300.0,-3083.62,0.0
300.0,-300.0,-3004.8,0.0
300.0,-300.0,-2912.46,0.0
300.0,-300.0,-2815.32,0.0
300.0,-300.0,-2723.85,0.0
300.0,-300.0,-2647.31,0.0
300.0,-300.0,-2593.22,0.0
300.0,-300.0,-2566.6,0.0
300.0,-300.0,-2568.81,0.0
300.0,-300.0,-2596.86,0.0
300.0,-300.0,-2641.44,0.0
300.0,-300.0,-2692.5,0.0
300.0,-300.0,-2737.69,0.0
300.0,-300.0,-2763.9,0.0
300.0,-300.0,-2760.51,0.0
300.0,-300.0,-2719.74,0.0
300.0,-300.0,-2638.33,0.0
300.0,-300.0,-2517.31,0.0
300.0,-300.0,-2362.81,0.0
300.0,-300.0,-2185.95,0.0
300.0,-300.0,-1999.05,0.0
300.0,-300.0,-1814.58,0.0
300.0,-300.0,-1646.16,0.0
300.0,-300.0,-1503.88,0.0
300.0,-300.0,-1394.08,0.0
300.0,-300.0,-1318.9,0.0
300.0,-300.0,-1275.64,0.0
300.0,-300.0,-1258.3,0.0
300.0,-300.0,-1257.01,0.0
300.0,-300.0,-1261.15,0.0
300.0,-300.0,-1260.26,0.0
300.0,-300.0,-1248.77,0.0
300.0,-300.0,-1216.41,0.0
300.0,-300.0,-1161.12,0.0
300.0,-300.0,-1084.04,0.0
300.0,-300.0,-988.48,0.0
300.0,-300.0,-880.1,0.0
300.0,-300.0,-765.7,0.0
300.0,-300.0,-651.06,0.0
300.0,-300.0,-543.23,0.0
300.0,-300.0,-445.86,0.0
300.0,-300.0,-362.24,0.0
300.0,-300.0,-293.13,0.0
300.0,-300.0,-237.77,0.0
300.0,-300.0,-194.85,0.0
300.0,-300.0,-163.51,0.0
300.0,-300.0,-142.91,0.0
300.0,-300.0,-133.58,0.0
300.0,-300.0,-137.69,0.0
300.0,-300.0,-157.42,0.0
300.0,-300.0,-196.31,0.0
300.0,-300.0,-256.98,0.0
300.0,-300.0,-342.83,0.0
300.0,-300.0,-454.82,0.0
300.0,-300.0,-591.91,0.0
300.0,-300.0,-750.7,0.0
300.0,-300.0,-926.36,0.0
300.0,-300.0,-1112.05,0.0
300.0,-300.0,-1301.86,0.0
300.0,-300.0,-1487.6,0.0
300.0,-300.0,-1663.56,0.0
300.0,-300.0,-1825.07,0.0
300.0,-300.0,-1969.11,0.0
300.0,-300.0,-2095.99,0.0
300.0,-300.0,-2206.48,0.0
300.0,-300.0,-2302.32,0.0
300.0,-300.0,-2385.88,0.0
300.0,-300.0,-2459.32,0.0
300.0,-300.0,-2523.41,0.0
300.0,-300.0,-2577.04,0.0
300.0,-300.0,-2618.55,0.0
300.0,-300.0,-2645.43,0.0
300.0,-300.0,-2653.91,0.0
300.0,-300.0,-2643.13,0.0
300.0,-300.0,-2611.67,0.0
300.0,-300.0,-2561.47,0.0
300.0,-300.0,-2495.92,0.0
300.0,-300.0,-2421.34,0.0
300.0,-300.0,-2345.83,0.0
300.0,-300.0,-2277.68,0.0
300.0,-300.0,-2222.41,0.0
300.0,-300.0,-2185.89,0.0
300.0,-300.0,-2169.9,0.0
300.0,-300.0,-2172.55,0.0
300.0,-300.0,-2189.04,0.0
300.0,-300.0,-2211.39,0.0
300.0,-300.0,-2230.71,0.0
300.0,-300.0,-2237.72,0.0
300.0,-300.0,-2222.58,0.0
300.0,-300.0,-2184.23,0.0
300.0,-300.0,-2117.69,0.0
300.0,-300.0,-2027.27,0.0
300.0,-300.0,-1918.19,0.0
300.0,-300.0,-1798.74,0.0
300.0,-300.0,-1678.23,0.0
300.0,-300.0,-1565.11,0.0
300.0,-300.0,-1466.46,0.0
300.0,-300.0,-1385.44,0.0
300.0,-300.0,-1323.77,0.0
300.0,-300.0,-1278.14,0.0
300.0,-300.0,-1242.68,0.0
300.0,-300.0,-1212.47,0.0
300.0,-300.0,-1179.51,0.0
300.0,-300.0,-1137.34,0.0
300.0,-300.0,-1081.58,0.0
300.0,-300.0,-1010.76,0.0
300.0,-300.0,-926.45,0.0
300.0,-300.0,-832.21,0.0
300.0,-300.0,-733.47,0.0
300.0,-300.0,-636.77,0.0
300.0,-300.0,-546.93,0.0
300.0,-300.0,-468.33,0.0
300.0,-300.0,-404.2,0.0
300.0,-300.0,-354.45,0.0
300.0,-300.0,-317.93,0.0
300.0,-300.0,-292.53,0.0
300.0,-300.0,-276.09,0.0
300.0,-300.0,-268.39,0.0
300.0,-300.0,-267.97,0.0
300.0,-300.0,-277.12,0.0
300.0,-300.0,-299.04,0.0
300.0,-300.0,-336.32,0.0
300.0,-300.0,-394.04,0.0
300.0,-300.0,-475.22,0.0
300.0,-300.0,-581.9,0.0
300.0,-300.0,-713.68,0.0
300.0,-300.0,-868.18,0.0
300.0,-300.0,-1041.73,0.0
300.0,-300.0,-1226.65,0.0
300.0,-300.0,-1417.22,0.0
300.0,-300.0,-1605.61,0.0
300.0,-300.0,-1786.36,0.0
300.0,-300.0,-1955.36,0.0
300.0,-300.0,-2110.1,0.0
300.0,-300.0,-2249.92,0.0
300.0,-300.0,-2376.15,0.0
300.0,-300.0,-2490.23,0.0
300.0,-300.0,-2594.06,0.0
300.0,-300.0,-2689.43,0.0
300.0,-300.0,-2775.27,0.0
300.0,-300.0,-2850.95,0.0
300.0,-300.0,-2914.38,0.0
300.0,-300.0,-2961.77,0.0
300.0,-300.0,-2990.19,0.0
300.0,-300.0,-2996.87,0.0
300.0,-300.0,-2981.04,0.0
300.0,-300.0,-2943.95,0.0
300.0,-300.0,-2889.22,0.0
300.0,-300.0,-2823.65,0.0
300.0,-300.0,-2753.14,0.0
300.0,-300.0,-2686.48,0.0
300.0,-300.0,-2631.62,0.0
300.0,-300.0,-2594.07,0.0
300.0,-300.0,-2577.84,0.0
300.0,-300.0,-2582.51,0.0
300.0,-300.0,-2604.21,0.0
300.0,-300.0,-2629.24,0.0
300.0,-300.0,-2654.5,0.0
300.0,-300.0,-2667.43,0.0
300.0,-300.0,-2658.29,0.0
300.0,-300.0,-2620.47,0.0
300.0,-300.0,-2550.39,0.0
300.0,-300.0,-2447.68,0.0
300.0,-300.0,-2317.87,0.0
300.0,-300.0,-2168.43,0.0
300.0,-300.0,-2010.69,0.0
300.0,-300.0,-1856.51,0.0
300.0,-300.0,-1716.03,0.0
300.0,-300.0,-1598.05,0.0
300.0,-300.0,-1506.92,0.0
300.0,-300.0,-1443.1,0.0
300.0,-300.0,-1403.92,0.0
300.0,-300.0,-1382.14,0.0
300.0,-300.0,-1368.65,0.0
300.0,-300.0,-1353.03,0.0
300.0,-300.0,-1325.93,0.0
300.0,-300.0,-1282.83,0.0
300.0,-300.0,-1217.88,0.0
300.0,-300.0,-1131.48,0.0
300.0,-300.0,-1029.23,0.0
300.0,-300.0,-913.77,0.0
300.0,-300.0,-794.34,0.0
300.0,-300.0,-678.46,0.0
300.0,-300.0,-572.86,0.0
300.0,-300.0,-482.2,0.0
300.0,-300.0,-408.74,0.0
300.0,-300.0,-353.09,0.0
300.0,-300.0,-312.45,0.0
300.0,-300.0,-285.15,0.0
300.0,-300.0,-267.07,0.0
300.0,-300.0,-256.37,0.0
300.0,-300.0,-252.76,0.0
300.0,-300.0,-257.47,0.0
300.0,-300.0,-273.94,0.0
300.0,-300.0,-306.88,0.0
300.0,-300.0,-360.97,0.0
300.0,-300.0,-441.22,0.0
300.0,-300.0,-550.04,0.0
300.0,-300.0,-687.91,0.0
300.0,-300.0,-853.15,0.0
300.0,-300.0,-1040.43,0.0
300.0,-300.0,-1243.29,0.0
300.0,-300.0,-1453.34,0.0
300.0,-300.0,-1662.49,0.0
300.0,-300.0,-1863.1,0.0
300.0,-300.0,-2050.13,0.0
300.0,-300.0,-2219.18,0.0
300.0,-300.0,-2370.3,0.0
300.0,-300.0,-2502.81,0.0
300.0,-300.0,-2620.3,0.0
300.0,-300.0,-2725.33,0.0
300.0,-300.0,-2820.18,0.0
300.0,-300.0,-2906.04,0.0
300.0,-300.0,-2982.12,0.0
300.0,-300.0,-3046.44,0.0
300.0,-300.0,-3096.3,0.0
300.0,-300.0,-3127.19,0.0
300.0,-300.0,-3136.14,0.0
300.0,-300.0,-3119.79,0.0
300.0,-300.0,-3080.02,0.0
300.0,-300.0,-3019.29,0.0
300.0,-300.0,-2943.21,0.0
300.0,-300.0,-2859.31,0.0
300.0,-300.0,-2776.64,0.0
300.0,-300.0,-2704.03,0.0
300.0,-300.0,-2651.63,0.0
300.0,-300.0,-2622.57,0.0
300.0,-300.0,-2620.02,0.0
300.0,-300.0,-2641.94,0.0
300.0,-300.0,-2682.38,0.0
300.0,-300.0,-2731.74,0.0
300.0,-300.0,-2779.46,0.0
300.0,-300.0,-2812.87,0.0
300.0,-300.0,-2821.26,0.0
300.0,-300.0,-2796.07,0.0
300.0,-300.0,-2730.85,0.0
300.0,-300.0,-2627.4,0.0
300.0,-300.0,-2490.0,0.0
300.0,-300.0,-2326.86,0.0
300.0,-300.0,-2148.83,0.0
300.0,-300.0,-1968.9,0.0
300.0,-300.0,-1800.52,0.0
300.0,-300.0,-1654.06,0.0
300.0,-300.0,-1537.43,0.0
300.0,-300.0,-1454.37,0.0
300.0,-300.0,-1403.2,0.0
300.0,-300.0,-1378.66,0.0
300.0,-300.0,-1379.31,0.0
300.0,-300.0,-1388.76,0.0
300.0,-300.0,-1397.55,0.0
300.0,-300.0,-1396.55,0.0
300.0,-300.0,-1379.1,0.0
300.0,-300.0,-1340.92,0.0
300.0,-300.0,-1281.0,0.0
300.0,-300.0,-1201.23,0.0
300.0,-300.0,-1106.16,0.0
300.0,-300.0,-1002.3,0.0
300.0,-300.0,-895.21,0.0
300.0,-300.0,-791.84,0.0
300.0,-300.0,-697.49,0.0
300.0,-300.0,-615.12,0.0
300.0,-300.0,-545.54,0.0
300.0,-300.0,-488.89,0.0
300.0,-300.0,-443.08,0.0
300.0,-300.0,-406.45,0.0
300.0,-300.0,-377.0,0.0
300.0,-300.0,-355.22,0.0
300.0,-300.0,-339.71,0.0
300.0,-300.0,-334.78,0.0
300.0,-300.0,-343.84,0.0
300.0,-300.0,-371.04,0.0
300.0,-300.0,-420.89,0.0
300.0,-300.0,-496.06,0.0
300.0,-300.0,-598.39,0.0
300.0,-300.0,-726.83,0.0
300.0,-300.0,-879.6,0.0
300.0,-300.0,-1050.53,0.0
300.0,-300.0,-1232.92,0.0
300.0,-300.0,-1419.28,0.0
300.0,-300.0,-1602.93,0.0
300.0,-300.0,-1776.88,0.0
300.0,-300.0,-1936.96,0.0
300.0,-300.0,-2080.58,0.0
300.0,-300.0,-2207.39,0.0
300.0,-300.0,-2318.78,0.0
300.0,-300.0,-2417.27,0.0
300.0,-300.0,-2504.3,0.0
300.0,-300.0,-2581.81,0.0
300.0,-300.0,-2649.88,0.0
300.0,-300.0,-2707.73,0.0
300.0,-300.0,-2752.74,0.0
300.0,-300.0,-2781.72,0.0
300.0,-300.0,-2790.63,0.0
300.0,-300.0,-2777.97,0.0
300.0,-300.0,-2742.38,0.0
300.0,-300.0,-2686.8,0.0
300.0,-300.0,-2613.81,0.0
300.0,-300.0,-2531.34,0.0
300.0,-300.0,-2446.24,0.0
300.0,-300.0,-2367.6,0.0
300.0,-300.0,-2302.98,0.0
300.0,-300.0,-2258.77,0.0
300.0,-300.0,-2237.37,0.0
300.0,-300.0,-2238.4,0.0
300.0,-300.0,-2257.26,0.0
300.0,-300.0,-2280.17,0.0
300.0,-300.0,-2302.14,0.0
300.0,-300.0,-2311.34,0.0
300.0,-300.0,-2298.02,0.0
300.0,-300.0,-2255.82,0.0
300.0,-300.0,-2181.27,0.0
300.0,-300.0,-2075.72,0.0
300.0,-300.0,-1944.48,0.0
300.0,-300.0,-1796.84,0.0
300.0,-300.0,-1644.08,0.0
300.0,-300.0,-1497.88,0.0
300.0,-300.0,-1367.62,0.0
300.0,-300.0,-1262.54,0.0
300.0,-300.0,-1185.86,0.0
300.0,-300.0,-1137.74,0.0
300.0,-300.0,-1113.61,0.0
300.0,-300.0,-1106.8,0.0
300.0,-300.0,-1107.46,0.0
300.0,-300.0,-1106.19,0.0
300.0,-300.0,-1095.07,0.0
300.0,-300.0,-1066.68,0.0
300.0,-300.0,-1020.13,0.0
300.0,-300.0,-953.81,0.0
300.0,-300.0,-870.38,0.0
300.0,-300.0,-776.73,0.0
300.0,-300.0,-679.04,0.0
300.0,-300.0,-584.77,0.0
300.0,-300.0,-498.97,0.0
300.0,-300.0,-425.58,0.0
300.0,-300.0,-367.07,0.0
300.0,-300.0,-322.32,0.0
300.0,-300.0,-291.34,0.0
300.0,-300.0,-270.69,0.0
300.0,-300.0,-258.56,0.0
300.0,-300.0,-253.61,0.0
300.0,-300.0,-256.26,0.0
300.0,-300.0,-268.04,0.0
300.0,-300.0,-291.94,0.0
300.0,-300.0,-331.49,0.0
300.0,-300.0,-391.63,0.0
300.0,-300.0,-473.66,0.0
300.0,-300.0,-579.91,0.0
300.0,-300.0,-709.29,0.0
300.0,-300.0,-858.98,0.0
300.0,-300.0,-1024.78,0.0
300.0,-300.0,-1200.05,0.0
300.0,-300.0,-1378.16,0.0
300.0,-300.0,-1552.86,0.0
300.0,-300.0,-1718.5,0.0
300.0,-300.0,-1871.39,0.0
300.0,-300.0,-2009.59,0.0
300.0,-300.0,-2133.52,0.0
300.0,-300.0,-2243.88,0.0
300.0,-300.0,-2343.0,0.0
300.0,-300.0,-2433.25,0.0
300.0,-300.0,-2515.53,0.0
300.0,-300.0,-2590.21,0.0
300.0,-300.0,-2655.72,0.0
300.0,-300.0,-2709.72,0.0
300.0,-300.0,-2748.67,0.0
300.0,-300.0,-2770.56,0.0
300.0,-300.0,-2771.24,0.0
300.0,-300.0,-2751.27,0.0
300.0,-300.0,-2711.71,0.0
300.0,-300.0,-2656.7,0.0
300.0,-300.0,-2591.45,0.0
300.0,-300.0,-2523.72,0.0
300.0,-300.0,-2461.39,0.0
300.0,-300.0,-2412.15,0.0
300.0,-300.0,-2382.16,0.0
300.0,-300.0,-2374.59,0.0
300.0,-300.0,-2389.67,0.0
300.0,-300.0,-2425.68,0.0
300.0,-300.0,-2476.72,0.0
300.0,-300.0,-2535.52,0.0
300.0,-300.0,-2592.75,0.0
300.0,-300.0,-2638.8,0.0
300.0,-300.0,-2664.91,0.0
300.0,-300.0,-2658.33,0.0
300.0,-300.0,-2619.05,0.0
300.0,-300.0,-2544.88,0.0
300.0,-300.0,-2436.37,0.0
300.0,-300.0,-2299.88,0.0
300.0,-300.0,-2142.28,0.0
300.0,-300.0,-1973.97,0.0
300.0,-300.0,-1804.81,0.0
300.0,-300.0,-1645.78,0.0
300.0,-300.0,-1505.07,0.0
300.0,-300.0,-1390.2,0.0
300.0,-300.0,-1304.36,0.0
300.0,-300.0,-1246.98,0.0
300.0,-300.0,-1221.41,0.0
300.0,-300.0,-1216.3,0.0
300.0,-300.0,-1224.62,0.0
300.0,-300.0,-1238.05,0.0
300.0,-300.0,-1248.26,0.0
300.0,-300.0,-1247.64,0.0
300.0,-300.0,-1230.36,0.0
300.0,-300.0,-1194.08,0.0
300.0,-300.0,-1136.49,0.0
300.0,-300.0,-1059.79,0.0
300.0,-300.0,-968.38,0.0
300.0,-300.0,-866.82,0.0
300.0,-300.0,-761.75,0.0
300.0,-300.0,-659.26,0.0
300.0,-300.0,-563.93,0.0
300.0,-300.0,-479.26,0.0
300.0,-300.0,-406.61,0.0
300.0,-300.0,-346.74,0.0
300.0,-300.0,-299.31,0.0
300.0,-300.0,-261.96,0.0
300.0,-300.0,-234.7,0.0
300.0,-300.0,-217.64,0.0
300.0,-300.0,-211.84,0.0
300.0,-300.0,-220.05,0.0
300.0,-300.0,-245.59,0.0
300.0,-300.0,-292.66,0.0
300.0,-300.0,-364.93,0.0
300.0,-300.0,-464.98,0.0
300.0,-300.0,-593.69,0.0
300.0,-300.0,-748.32,0.0
300.0,-300.0,-925.82,0.0
300.0,-300.0,-1119.51,0.0
300.0,-300.0,-1321.89,0.0
300.0,-300.0,-1525.39,0.0
300.0,-300.0,-1722.57,0.0
300.0,-300.0,-1907.78,0.0
300.0,-300.0,-2078.27,0.0
300.0,-300.0,-2232.11,0.0
300.0,-300.0,-2370.25,0.0
300.0,-300.0,-2493.91,0.0
300.0,-300.0,-2606.76,0.0
300.0,-300.0,-2711.1,0.0
300.0,-300.0,-2807.04,0.0
300.0,-300.0,-2894.63,0.0
300.0,-300.0,-2971.16,0.0
300.0,-300.0,-3033.09,0.0
300.0,-300.0,-3077.25,0.0
300.0,-300.0,-3099.16,0.0
300.0,-300.0,-3096.53,0.0
300.0,-300.0,-3069.63,0.0
300.0,-300.0,-3020.58,0.0
300.0,-300.0,-2954.79,0.0
300.0,-300.0,-2879.33,0.0
300.0,-300.0,-2803.51,0.0
300.0,-300.0,-2735.42,0.0
300.0,-300.0,-2683.44,0.0
300.0,-300.0,-2654.07,0.0
300.0,-300.0,-2648.44,0.0
300.0,-300.0,-2666.48,0.0
300.0,-300.0,-2704.4,0.0
300.0,-300.0,-2754.59,0.0
300.0,-300.0,-2809.36,0.0
300.0,-300.0,-2859.45,0.0
300.0,-300.0,-2896.95,0.0
300.0,-300.0,-2915.59,0.0
300.0,-300.0,-2910.86,0.0
300.0,-300.0,-2875.45,0.0
300.0,-300.0,-2813.16,0.0
300.0,-300.0,-2724.16,0.0
300.0,-300.0,-2612.03,0.0
300.0,-300.0,-2481.45,0.0
300.0,-300.0,-2337.49,0.0
300.0,-300.0,-2185.62,0.0
300.0,-300.0,-2031.18,0.0
300.0,-300.0,-1879.48,0.0
300.0,-300.0,-1736.02,0.0
300.0,-300.0,-1605.8,0.0
300.0,-300.0,-1491.48,0.0
300.0,-300.0,-1401.23,0.0
300.0,-300.0,-1332.1,0.0
300.0,-300.0,-1284.29,0.0
300.0,-300.0,-1256.78,0.0
300.0,-300.0,-1246.31,0.0
300.0,-300.0,-1248.29,0.0
300.0,-300.0,-1255.18,0.0
300.0,-300.0,-1260.61,0.0
300.0,-300.0,-1257.24,0.0
300.0,-300.0,-1238.65,0.0
300.0,-300.0,-1200.53,0.0
300.0,-300.0,-1141.54,0.0
300.0,-300.0,-1062.25,0.0
300.0,-300.0,-965.66,0.0
300.0,-300.0,-857.62,0.0
300.0,-300.0,-744.26,0.0
300.0,-300.0,-632.36,0.0
300.0,-300.0,-528.04,0.0
300.0,-300.0,-435.22,0.0
300.0,-300.0,-357.44,0.0
300.0,-300.0,-294.04,0.0
300.0,-300.0,-246.11,0.0
300.0,-300.0,-211.89,0.0
300.0,-300.0,-189.95,0.0
300.0,-300.0,-179.36,0.0
300.0,-300.0,-180.81,0.0
300.0,-300.0,-195.45,0.0
300.0,-300.0,-227.63,0.0
300.0,-300.0,-279.24,0.0
300.0,-300.0,-354.35,0.0
300.0,-300.0,-455.15,0.0
300.0,-300.0,-581.36,0.0
300.0,-300.0,-731.88,0.0
300.0,-300.0,-902.69,0.0
300.0,-300.0,-1087.71,0.0
300.0,-300.0,-1279.79,0.0
300.0,-300.0,-1471.55,0.0
300.0,-300.0,-1656.82,0.0
300.0,-300.0,-1829.01,0.0
300.0,-300.0,-1985.11,0.0
300.0,-300.0,-2123.8,0.0
300.0,-300.0,-2245.43,0.0
300.0,-300.0,-2352.35,0.0
300.0,-300.0,-2446.62,0.0
300.0,-300.0,-2530.51,0.0
300.0,-300.0,-2605.43,0.0
300.0,-300.0,-2670.75,0.0
300.0,-300.0,-2725.18,0.0
300.0,-300.0,-2766.13,0.0
300.0,-300.0,-2789.37,0.0
300.0,-300.0,-2792.72,0.0
300.0,-300.0,-2774.57,0.0
300.0,-300.0,-2734.65,0.0
300.0,-300.0,-2675.89,0.0
300.0,-300.0,-2602.95,0.0
300.0,-300.0,-2523.13,0.0
300.0,-300.0,-2444.08,0.0
300.0,-300.0,-2373.65,0.0
300.0,-300.0,-2320.09,0.0
300.0,-300.0,-2286.56,0.0
300.0,-300.0,-2276.15,0.0
300.0,-300.0,-2287.31,0.0
300.0,-300.0,-2315.65,0.0
300.0,-300.0,-2354.45,0.0
300.0,-300.0,-2395.15,0.0
300.0,-300.0,-2430.06,0.0
300.0,-300.0,-2445.82,0.0
300.0,-300.0,-2438.29,0.0
300.0,-300.0,-2401.4,0.0
300.0,-300.0,-2331.42,0.0
300.0,-300.0,-2230.84,0.0
300.0,-300.0,-2102.24,0.0
300.0,-300.0,-1951.69,0.0
300.0,-300.0,-1786.81,0.0
300.0,-300.0,-1616.21,0.0
300.0,-300.0,-1448.69,0.0
300.0,-300.0,-1293.28,0.0
300.0,-300.0,-1156.04,0.0
300.0,-300.0,-1040.81,0.0
300.0,-300.0,-955.7,0.0
300.0,-300.0,-896.71,0.0
300.0,-300.0,-862.43,0.0
300.0,-300.0,-849.0,0.0
300.0,-300.0,-850.82,0.0
300.0,-300.0,-860.9,0.0
300.0,-300.0,-872.11,0.0
300.0,-300.0,-878.51,0.0
300.0,-300.0,-873.63,0.0
300.0,-300.0,-853.19,0.0
300.0,-300.0,-815.0,0.0
300.0,-300.0,-758.68,0.0
300.0,-300.0,-686.7,0.0
300.0,-300.0,-602.26,0.0
300.0,-300.0,-510.05,0.0
300.0,-300.0,-415.53,0.0
300.0,-300.0,-324.03,0.0
300.0,-300.0,-239.09,0.0
300.0,-300.0,-165.19,0.0
300.0,-300.0,-104.12,0.0
300.0,-300.0,-55.89,0.0
300.0,-300.0,-21.49,0.0
300.0,-300.0,-0.36,0.0
300.0,-300.0,7.49,0.0
300.0,-300.0,2.05,0.0
300.0,-300.0,-18.52,0.0
300.0,-300.0,-55.58,0.0
300.0,-300.0,-112.04,0.0
300.0,-300.0,-191.43,0.0
300.0,-300.0,-294.95,0.0
300.0,-300.0,-424.23,0.0
300.0,-300.0,-578.41,0.0
300.0,-300.0,-754.99,0.0
300.0,-300.0,-949.78,0.0
300.0,-300.0,-1156.24,0.0
300.0,-300.0,-1367.79,0.0
300.0,-300.0,-1578.27,0.0
300.0,-300.0,-1780.91,0.0
300.0,-300.0,-1971.42,0.0
300.0,-300.0,-2145.34,0.0
300.0,-300.0,-2302.69,0.0
300.0,-300.0,-2443.81,0.0
300.0,-300.0,-2569.43,0.0
300.0,-300.0,-2681.63,0.0
300.0,-300.0,-2781.68,0.0
300.0,-300.0,-2870.17,0.0
300.0,-300.0,-2947.11,0.0
300.0,-300.0,-3010.52,0.0
300.0,-300.0,-3058.24,0.0
300.0,-300.0,-3087.1,0.0
300.0,-300.0,-3096.77,0.0
300.0,-300.0,-3085.92,0.0
300.0,-300.0,-3055.91,0.0
300.0,-300.0,-3010.15,0.0
300.0,-300.0,-2953.91,0.0
300.0,-300.0,-2893.91,0.0
300.0,-300.0,-2838.29,0.0
300.0,-300.0,-2792.99,0.0
300.0,-300.0,-2763.91,0.0
300.0,-300.0,-2754.75,0.0
300.0,-300.0,-2765.48,0.0
300.0,-300.0,-2794.17,0.0
300.0,-300.0,-2835.97,0.0
300.0,-300.0,-2883.82,0.0
300.0,-300.0,-2930.34,0.0
300.0,-300.0,-2967.73,0.0
300.0,-300.0,-2989.82,0.0
300.0,-300.0,-2990.35,0.0
300.0,-300.0,-2965.82,0.0
300.0,-300.0,-2915.71,0.0
300.0,-300.0,-2838.94,0.0
300.0,-300.0,-2738.48,0.0
300.0,-300.0,-2617.58,0.0
300.0,-300.0,-2480.37,0.0
300.0,-300.0,-2331.52,0.0
300.0,-300.0,-2175.46,0.0
300.0,-300.0,-2016.99,0.0
300.0,-300.0,-1860.73,0.0
300.0,-300.0,-1714.85,0.0
300.0,-300.0,-1581.43,0.0
300.0,-300.0,-1465.02,0.0
300.0,-300.0,-1369.39,0.0
300.0,-300.0,-1296.26,0.0
300.0,-300.0,-1246.78,0.0
300.0,-300.0,-1219.28,0.0
300.0,-300.0,-1210.43,0.0
300.0,-300.0,-1212.62,0.0
300.0,-300.0,-1221.84,0.0
300.0,-300.0,-1228.38,0.0
300.0,-300.0,-1225.46,0.0
300.0,-300.0,-1206.78,0.0
300.0,-300.0,-1167.68,0.0
300.0,-300.0,-1106.38,0.0
300.0,-300.0,-1024.09,0.0
300.0,-300.0,-924.07,0.0
300.0,-300.0,-811.85,0.0
300.0,-300.0,-694.79,0.0
300.0,-300.0,-580.22,0.0
300.0,-300.0,-473.25,0.0
300.0,-300.0,-380.1,0.0
300.0,-300.0,-303.37,0.0
300.0,-300.0,-244.42,0.0
300.0,-300.0,-202.76,0.0
300.0,-300.0,-176.57,0.0
300.0,-300.0,-164.57,0.0
300.0,-300.0,-167.06,0.0
300.0,-300.0,-182.2,0.0
300.0,-300.0,-211.95,0.0
300.0,-300.0,-259.1,0.0
300.0,-300.0,-326.02,0.0
300.0,-300.0,-415.59,0.0
300.0,-300.0,-530.34,0.0
300.0,-300.0,-670.13,0.0
300.0,-300.0,-833.46,0.0
300.0,-300.0,-1016.29,0.0
300.0,-300.0,-1214.7,0.0
300.0,-300.0,-1419.74,0.0
300.0,-300.0,-1624.83,0.0
300.0,-300.0,-1823.31,0.0
300.0,-300.0,-2008.86,0.0
300.0,-300.0,-2178.43,0.0
300.0,-300.0,-2330.42,0.0
300.0,-300.0,-2464.58,0.0
300.0,-300.0,-2582.93,0.0
300.0,-300.0,-2687.2,0.0
300.0,-300.0,-2780.93,0.0
300.0,-300.0,-2865.09,0.0
300.0,-300.0,-2939.38,0.0
300.0,-300.0,-3003.18,0.0
300.0,-300.0,-3054.06,0.0
300.0,-300.0,-3089.33,0.0
300.0,-300.0,-3105.63,0.0
300.0,-300.0,-3101.02,0.0
300.0,-300.0,-3075.85,0.0
300.0,-300.0,-3031.75,0.0
300.0,-300.0,-2973.73,0.0
300.0,-300.0,-2908.57,0.0
300.0,-300.0,-2842.85,0.0
300.0,-300.0,-2784.7,0.0
300.0,-300.0,-2741.43,0.0
300.0,-300.0,-2717.36,0.0
300.0,-300.0,-2714.23,0.0
300.0,-300.0,-2731.29,0.0
300.0,-300.0,-2764.58,0.0
300.0,-300.0,-2808.75,0.0
300.0,-300.0,-2855.21,0.0
300.0,-300.0,-2895.91,0.0
300.0,-300.0,-2921.98,0.0
300.0,-300.0,-2926.92,0.0
300.0,-300.0,-2905.5,0.0
300.0,-300.0,-2853.99,0.0
300.0,-300.0,-2772.45,0.0
300.0,-300.0,-2662.59,0.0
300.0,-300.0,-2527.8,0.0
300.0,-300.0,-2370.99,0.0
300.0,-300.0,-2201.72,0.0
300.0,-300.0,-2026.41,0.0
300.0,-300.0,-1851.66,0.0
300.0,-300.0,-1685.36,0.0
300.0,-300.0,-1534.77,0.0
300.0,-300.0,-1405.03,0.0
300.0,-300.0,-1300.52,0.0
300.0,-300.0,-1223.79,0.0
300.0,-300.0,-1175.02,0.0
300.0,-300.0,-1151.77,0.0
300.0,-300.0,-1149.97,0.0
300.0,-300.0,-1163.55,0.0
300.0,-300.0,-1185.23,0.0
300.0,-300.0,-1205.57,0.0
300.0,-300.0,-1216.53,0.0
300.0,-300.0,-1211.25,0.0
300.0,-300.0,-1184.48,0.0
300.0,-300.0,-1133.27,0.0
300.0,-300.0,-1058.19,0.0
300.0,-300.0,-961.99,0.0
300.0,-300.0,-849.73,0.0
300.0,-300.0,-727.66,0.0
300.0,-300.0,-605.44,0.0
300.0,-300.0,-487.53,0.0
300.0,-300.0,-380.29,0.0
300.0,-300.0,-287.91,0.0
300.0,-300.0,-212.61,0.0
300.0,-300.0,-154.69,0.0
300.0,-300.0,-113.36,0.0
300.0,-300.0,-87.45,0.0
300.0,-300.0,-76.06,0.0
300.0,-300.0,-78.9,0.0
300.0,-300.0,-97.07,0.0
300.0,-300.0,-132.19,0.0
300.0,-300.0,-187.79,0.0
300.0,-300.0,-265.85,0.0
300.0,-300.0,-369.22,0.0
300.0,-300.0,-498.09,0.0
300.0,-300.0,-651.49,0.0
300.0,-300.0,-825.75,0.0
300.0,-300.0,-1016.47,0.0
300.0,-300.0,-1214.33,0.0
300.0,-300.0,-1414.2,0.0
300.0,-300.0,-1607.78,0.0
300.0,-300.0,-1789.54,0.0
300.0,-300.0,-1954.89,0.0
300.0,-300.0,-2101.77,0.0
300.0,-300.0,-2230.07,0.0
300.0,-300.0,-2341.98,0.0
300.0,-300.0,-2439.48,0.0
300.0,-300.0,-2525.57,0.0
300.0,-300.0,-2600.49,0.0
300.0,-300.0,-2666.41,0.0
300.0,-300.0,-2721.37,0.0
300.0,-300.0,-2763.42,0.0
300.0,-300.0,-2788.71,0.0
300.0,-300.0,-2794.1,0.0
300.0,-300.0,-2777.43,0.0
300.0,-300.0,-2739.02,0.0
300.0,-300.0,-2680.34,0.0
300.0,-300.0,-2606.5,0.0
300.0,-300.0,-2523.53,0.0
300.0,-300.0,-2440.45,0.0
300.0,-300.0,-2366.09,0.0
300.0,-300.0,-2308.36,0.0
300.0,-300.0,-2273.21,0.0
300.0,-300.0,-2263.66,0.0
300.0,-300.0,-2279.89,0.0
300.0,-300.0,-2318.3,0.0
300.0,-300.0,-2369.19,0.0
300.0,-300.0,-2423.46,0.0
300.0,-300.0,-2469.46,0.0
300.0,-300.0,-2495.64,0.0
300.0,-300.0,-2493.11,0.0
300.0,-300.0,-2455.2,0.0
300.0,-300.0,-2379.04,0.0
300.0,-300.0,-2266.16,0.0
300.0,-300.0,-2122.04,0.0
300.0,-300.0,-1955.41,0.0
300.0,-300.0,-1778.94,0.0
300.0,-300.0,-1602.98,0.0
300.0,-300.0,-1440.11,0.0
300.0,-300.0,-1300.42,0.0
300.0,-300.0,-1190.04,0.0
300.0,-300.0,-1112.51,0.0
300.0,-300.0,-1066.39,0.0
300.0,-300.0,-1047.79,0.0
300.0,-300.0,-1048.34,0.0
300.0,-300.0,-1057.73,0.0
300.0,-300.0,-1067.62,0.0
300.0,-300.0,-1070.66,0.0
300.0,-300.0,-1057.08,0.0
300.0,-300.0,-1022.74,0.0
300.0,-300.0,-966.39,0.0
300.0,-300.0,-889.79,0.0
300.0,-300.0,-796.14,0.0
300.0,-300.0,-691.38,0.0
300.0,-300.0,-580.75,0.0
300.0,-300.0,-471.58,0.0
300.0,-300.0,-368.71,0.0
300.0,-300.0,-277.44,0.0
300.0,-300.0,-199.98,0.0
300.0,-300.0,-137.76,0.0
300.0,-300.0,-90.8,0.0
300.0,-300.0,-58.33,0.0
300.0,-300.0,-39.65,0.0
300.0,-300.0,-34.54,0.0
300.0,-300.0,-43.93,0.0
300.0,-300.0,-68.63,0.0
300.0,-300.0,-110.68,0.0
300.0,-300.0,-172.89,0.0
300.0,-300.0,-257.95,0.0
300.0,-300.0,-367.29,0.0
300.0,-300.0,-501.3,0.0
300.0,-300.0,-658.41,0.0
300.0,-300.0,-835.14,0.0
300.0,-300.0,-1027.02,0.0
300.0,-300.0,-1228.42,0.0
300.0,-300.0,-1431.8,0.0
300.0,-300.0,-1630.9,0.0
300.0,-300.0,-1820.24,0.0
300.0,-300.0,-1995.1,0.0
300.0,-300.0,-2153.98,0.0
300.0,-300.0,-2295.89,0.0
300.0,-300.0,-2422.03,0.0
300.0,-300.0,-2533.51,0.0
300.0,-300.0,-2632.9,0.0
300.0,-300.0,-2721.73,0.0
300.0,-300.0,-2800.1,0.0
300.0,-300.0,-2867.01,0.0
300.0,-300.0,-2921.48,0.0
300.0,-300.0,-2959.75,0.0
300.0,-300.0,-2980.26,0.0
300.0,-300.0,-2980.85,0.0
300.0,-300.0,-2961.35,0.0
300.0,-300.0,-2922.88,0.0
300.0,-300.0,-2869.52,0.0
300.0,-300.0,-2806.94,0.0
300.0,-300.0,-2742.76,0.0
300.0,-300.0,-2683.51,0.0
300.0,-300.0,-2637.03,0.0
300.0,-300.0,-2608.95,0.0
300.0,-300.0,-2602.18,0.0
300.0,-300.0,-2616.93,0.0
300.0,-300.0,-2651.03,0.0
300.0,-300.0,-2698.16,0.0
300.0,-300.0,-2751.64,0.0
300.0,-300.0,-2797.49,0.0
300.0,-300.0,-2829.12,0.0
300.0,-300.0,-2835.01,0.0
300.0,-300.0,-2808.8,0.0
300.0,-300.0,-2746.02,0.0
300.0,-300.0,-2645.49,0.0
300.0,-300.0,-2509.91,0.0
300.0,-300.0,-2345.76,0.0
300.0,-300.0,-2161.23,0.0
300.0,-300.0,-1968.35,0.0
300.0,-300.0,-1778.19,0.0
300.0,-300.0,-1601.95,0.0
300.0,-300.0,-1447.81,0.0
300.0,-300.0,-1324.59,0.0
300.0,-300.0,-1234.98,0.0
300.0,-300.0,-1178.81,0.0
300.0,-300.0,-1152.05,0.0
300.0,-300.0,-1148.41,0.0
300.0,-300.0,-1158.97,0.0
300.0,-300.0,-1174.01,0.0
300.0,-300.0,-1184.08,0.0
300.0,-300.0,-1181.35,0.0
300.0,-300.0,-1159.83,0.0
300.0,-300.0,-1115.11,0.0
300.0,-300.0,-1047.32,0.0
300.0,-300.0,-959.02,0.0
300.0,-300.0,-854.48,0.0
300.0,-300.0,-740.34,0.0
300.0,-300.0,-622.79,0.0
300.0,-300.0,-509.29,0.0
300.0,-300.0,-404.05,0.0
300.0,-300.0,-311.55,0.0
300.0,-300.0,-235.19,0.0
300.0,-300.0,-173.47,0.0
300.0,-300.0,-126.83,0.0
300.0,-300.0,-94.17,0.0
300.0,-300.0,-74.29,0.0
300.0,-300.0,-67.58,0.0
300.0,-300.0,-74.56,0.0
300.0,-300.0,-98.53,0.0
300.0,-300.0,-141.77,0.0
300.0,-300.0,-208.47,0.0
300.0,-300.0,-300.85,0.0
300.0,-300.0,-421.74,0.0
300.0,-300.0,-570.85,0.0
300.0,-300.0,-746.4,0.0
300.0,-300.0,-943.65,0.0
300.0,-300.0,-1156.59,0.0
300.0,-300.0,-1377.28,0.0
300.0,-300.0,-1598.61,0.0
300.0,-300.0,-1813.13,0.0
300.0,-300.0,-2014.39,0.0
300.0,-300.0,-2199.06,0.0
300.0,-300.0,-2365.88,0.0
300.0,-300.0,-2514.6,0.0
300.0,-300.0,-2647.22,0.0
300.0,-300.0,-2765.87,0.0
300.0,-300.0,-2872.75,0.0
300.0,-300.0,-2969.59,0.0
300.0,-300.0,-3056.19,0.0
300.0,-300.0,-3130.26,0.0
300.0,-300.0,-3188.44,0.0
300.0,-300.0,-3228.54,0.0
300.0,-300.0,-3246.88,0.0
300.0,-300.0,-3241.52,0.0
300.0,-300.0,-3213.02,0.0
300.0,-300.0,-3163.83,0.0
300.0,-300.0,-3099.27,0.0
300.0,-300.0,-3027.55,0.0
300.0,-300.0,-2956.31,0.0
300.0,-300.0,-2895.03,0.0
300.0,-300.0,-2850.28,0.0
300.0,-300.0,-2828.35,0.0
300.0,-300.0,-2830.97,0.0
300.0,-300.0,-2856.55,0.0
300.0,-300.0,-2900.51,0.0
300.0,-300.0,-2955.46,0.0
300.0,-300.0,-3012.1,0.0
300.0,-300.0,-3060.82,0.0
300.0,-300.0,-3090.01,0.0
300.0,-300.0,-3091.88,0.0
300.0,-300.0,-3060.03,0.0
300.0,-300.0,-2991.18,0.0
300.0,-300.0,-2886.0,0.0
300.0,-300.0,-2747.43,0.0
300.0,-300.0,-2581.71,0.0
300.0,-300.0,-2396.73,0.0
300.0,-300.0,-2202.07,0.0
300.0,-300.0,-2007.9,0.0
300.0,-300.0,-1823.72,0.0
300.0,-300.0,-1656.12,0.0
300.0,-300.0,-1515.77,0.0
300.0,-300.0,-1403.56,0.0
300.0,-300.0,-1321.85,0.0
300.0,-300.0,-1268.85,0.0
300.0,-300.0,-1241.47,0.0
300.0,-300.0,-1233.27,0.0
300.0,-300.0,-1237.13,0.0
300.0,-300.0,-1243.76,0.0
300.0,-300.0,-1246.76,0.0
300.0,-300.0,-1237.39,0.0
300.0,-300.0,-1210.5,0.0
300.0,-300.0,-1161.96,0.0
300.0,-300.0,-1091.15,0.0
300.0,-300.0,-999.08,0.0
300.0,-300.0,-889.97,0.0
300.0,-300.0,-768.34,0.0
300.0,-300.0,-641.69,0.0
300.0,-300.0,-514.83,0.0
300.0,-300.0,-395.83,0.0
300.0,-300.0,-288.32,0.0
300.0,-300.0,-196.01,0.0
300.0,-300.0,-120.09,0.0
300.0,-300.0,-61.23,0.0
300.0,-300.0,-18.93,0.0
300.0,-300.0,7.06,0.0
300.0,-300.0,17.46,0.0
300.0,-300.0,10.92,0.0
300.0,-300.0,-13.32,0.0
300.0,-300.0,-57.9,0.0
300.0,-300.0,-125.19,0.0
300.0,-300.0,-218.15,0.0
300.0,-300.0,-337.65,0.0
300.0,-300.0,-483.93,0.0
300.0,-300.0,-654.77,0.0
300.0,-300.0,-845.84,0.0
300.0,-300.0,-1051.55,0.0
300.0,-300.0,-1265.9,0.0
300.0,-300.0,-1479.75,0.0
300.0,-300.0,-1687.22,0.0
300.0,-300.0,-1881.81,0.0
300.0,-300.0,-2059.51,0.0
300.0,-300.0,-2218.85,0.0
300.0,-300.0,-2359.73,0.0
300.0,-300.0,-2482.75,0.0
300.0,-300.0,-2590.17,0.0
300.0,-300.0,-2683.4,0.0
300.0,-300.0,-2765.1,0.0
300.0,-300.0,-2833.1,0.0
300.0,-300.0,-2887.24,0.0
300.0,-300.0,-2924.74,0.0
300.0,-300.0,-2942.44,0.0
300.0,-300.0,-2938.09,0.0
300.0,-300.0,-2910.76,0.0
300.0,-300.0,-2860.49,0.0
300.0,-300.0,-2790.54,0.0
300.0,-300.0,-2706.04,0.0
300.0,-300.0,-2615.53,0.0
300.0,-300.0,-2527.28,0.0
300.0,-300.0,-2449.61,0.0
300.0,-300.0,-2390.14,0.0
300.0,-300.0,-2353.88,0.0
300.0,-300.0,-2341.17,0.0
300.0,-300.0,-2348.56,0.0
300.0,-300.0,-2369.7,0.0
300.0,-300.0,-2394.39,0.0
300.0,-300.0,-2411.69,0.0
300.0,-300.0,-2405.18,0.0
300.0,-300.0,-2372.07,0.0
300.0,-300.0,-2303.17,0.0
300.0,-300.0,-2198.6,0.0
300.0,-300.0,-2061.4,0.0
300.0,-300.0,-1899.87,0.0
300.0,-300.0,-1725.0,0.0
300.0,-300.0,-1550.45,0.0
300.0,-300.0,-1388.91,0.0
300.0,-300.0,-1250.55,0.0
300.0,-300.0,-1143.21,0.0
300.0,-300.0,-1069.71,0.0
300.0,-300.0,-1026.77,0.0
300.0,-300.0,-1010.12,0.0
300.0,-300.0,-1009.54,0.0
300.0,-300.0,-1013.65,0.0
300.0,-300.0,-1011.5,0.0
300.0,-300.0,-993.38,0.0
300.0,-300.0,-953.79,0.0
300.0,-300.0,-889.78,0.0
300.0,-300.0,-803.18,0.0
300.0,-300.0,-698.82,0.0
300.0,-300.0,-583.54,0.0
300.0,-300.0,-465.52,0.0
300.0,-300.0,-352.86,0.0
300.0,-300.0,-252.12,0.0
300.0,-300.0,-167.61,0.0
300.0,-300.0,-101.38,0.0
300.0,-300.0,-53.81,0.0
300.0,-300.0,-24.14,0.0
300.0,-300.0,-9.68,0.0
300.0,-300.0,-9.07,0.0
300.0,-300.0,-22.11,0.0
300.0,-300.0,-48.61,0.0
300.0,-300.0,-90.98,0.0
300.0,-300.0,-152.14,0.0
300.0,-300.0,-235.97,0.0
300.0,-300.0,-345.16,0.0
300.0,-300.0,-481.34,0.0
300.0,-300.0,-645.11,0.0
300.0,-300.0,-832.97,0.0
300.0,-300.0,-1039.76,0.0
300.0,-300.0,-1260.46,0.0
300.0,-300.0,-1485.72,0.0
300.0,-300.0,-1708.99,0.0
300.0,-300.0,-1923.01,0.0
300.0,-300.0,-2122.36,0.0
300.0,-300.0,-2304.09,0.0
300.0,-300.0,-2466.68,0.0
300.0,-300.0,-2611.2,0.0
300.0,-300.0,-2739.85,0.0
300.0,-300.0,-2854.01,0.0
300.0,-300.0,-2956.12,0.0
300.0,-300.0,-3047.36,0.0
300.0,-300.0,-3126.5,0.0
300.0,-300.0,-3191.9,0.0
300.0,-300.0,-3240.23,0.0
300.0,-300.0,-3267.69,0.0
300.0,-300.0,-3271.62,0.0
300.0,-300.0,-3250.64,0.0
300.0,-300.0,-3206.18,0.0
300.0,-300.0,-3139.95,0.0
300.0,-300.0,-3060.21,0.0
300.0,-300.0,-2974.01,0.0
300.0,-300.0,-2890.37,0.0
300.0,-300.0,-2818.4,0.0
300.0,-300.0,-2765.86,0.0
300.0,-300.0,-2737.27,0.0
300.0,-300.0,-2728.2,0.0
300.0,-300.0,-2738.0,0.0
300.0,-300.0,-2758.63,0.0
300.0,-300.0,-2778.22,0.0
300.0,-300.0,-2786.74,0.0
300.0,-300.0,-2773.39,0.0
300.0,-300.0,-2729.32,0.0
300.0,-300.0,-2650.24,0.0
300.0,-300.0,-2536.08,0.0
300.0,-300.0,-2391.31,0.0
300.0,-300.0,-2225.8,0.0
300.0,-300.0,-2049.76,0.0
300.0,-300.0,-1876.23,0.0
300.0,-300.0,-1716.41,0.0
300.0,-300.0,-1579.3,0.0
300.0,-300.0,-1470.44,0.0
300.0,-300.0,-1390.38,0.0
300.0,-300.0,-1335.13,0.0
300.0,-300.0,-1298.04,0.0
300.0,-300.0,-1268.77,0.0
300.0,-300.0,-1238.08,0.0
300.0,-300.0,-1196.12,0.0
300.0,-300.0,-1135.03,0.0
300.0,-300.0,-1056.54,0.0
300.0,-300.0,-955.15,0.0
300.0,-300.0,-836.23,0.0
300.0,-300.0,-706.39,0.0
300.0,-300.0,-573.96,0.0
300.0,-300.0,-446.41,0.0
300.0,-300.0,-330.34,0.0
300.0,-300.0,-230.22,0.0
300.0,-300.0,-147.01,0.0
300.0,-300.0,-82.09,0.0
300.0,-300.0,-32.34,0.0
300.0,-300.0,4.82,0.0
300.0,-300.0,31.67,0.0
300.0,-300.0,49.24,0.0
300.0,-300.0,57.22,0.0
300.0,-300.0,52.94,0.0
300.0,-300.0,32.77,0.0
300.0,-300.0,-9.39,0.0
300.0,-300.0,-77.82,0.0
300.0,-300.0,-176.57,0.0
300.0,-300.0,-307.59,0.0
300.0,-300.0,-470.45,0.0
300.0,-300.0,-661.15,0.0
300.0,-300.0,-874.09,0.0
300.0,-300.0,-1100.98,0.0
300.0,-300.0,-1333.18,0.0
300.0,-300.0,-1562.07,0.0
300.0,-300.0,-1781.36,0.0
300.0,-300.0,-1985.78,0.0
300.0,-300.0,-2171.27,0.0
300.0,-300.0,-2338.89,0.0
300.0,-300.0,-2489.39,0.0
300.0,-300.0,-2624.98,0.0
300.0,-300.0,-2748.11,0.0
300.0,-300.0,-2860.07,0.0
300.0,-300.0,-2961.38,0.0
300.0,-300.0,-3050.8,0.0
300.0,-300.0,-3125.27,0.0
300.0,-300.0,-3180.81,0.0
300.0,-300.0,-3212.78,0.0
300.0,-300.0,-3219.45,0.0
300.0,-300.0,-3200.11,0.0
300.0,-300.0,-3156.14,0.0
300.0,-300.0,-3092.33,0.0
300.0,-300.0,-3015.88,0.0
300.0,-300.0,-2935.78,0.0
300.0,-300.0,-2863.67,0.0
300.0,-300.0,-2806.87,0.0
300.0,-300.0,-2773.17,0.0
300.0,-300.0,-2766.14,0.0
300.0,-300.0,-2784.34,0.0
300.0,-300.0,-2823.25,0.0
300.0,-300.0,-2873.4,0.0
300.0,-300.0,-2922.78,0.0
300.0,-300.0,-2958.87,0.0
300.0,-300.0,-2969.07,0.0
300.0,-300.0,-2940.39,0.0
300.0,-300.0,-2870.93,0.0
300.0,-300.0,-2758.99,0.0
300.0,-300.0,-2608.96,0.0
300.0,-300.0,-2429.09,0.0
300.0,-300.0,-2233.12,0.0
300.0,-300.0,-2034.59,0.0
300.0,-300.0,-1847.66,0.0
300.0,-300.0,-1684.49,0.0
300.0,-300.0,-1553.31,0.0
300.0,-300.0,-1455.69,0.0
300.0,-300.0,-1390.46,0.0
300.0,-300.0,-1355.66,0.0
300.0,-300.0,-1338.87,0.0
300.0,-300.0,-1329.04,0.0
300.0,-300.0,-1315.15,0.0
300.0,-300.0,-1288.16,0.0
300.0,-300.0,-1241.11,0.0
300.0,-300.0,-1171.16,0.0
300.0,-300.0,-1079.63,0.0
300.0,-300.0,-970.01,0.0
300.0,-300.0,-850.06,0.0
300.0,-300.0,-725.55,0.0
300.0,-300.0,-605.61,0.0
300.0,-300.0,-496.3,0.0
300.0,-300.0,-401.68,0.0
300.0,-300.0,-323.72,0.0
300.0,-300.0,-261.87,0.0
300.0,-300.0,-214.06,0.0
300.0,-300.0,-177.97,0.0
300.0,-300.0,-150.74,0.0
300.0,-300.0,-131.3,0.0
300.0,-300.0,-118.71,0.0
300.0,-300.0,-116.23,0.0
300.0,-300.0,-127.25,0.0
300.0,-300.0,-156.61,0.0
300.0,-300.0,-209.55,0.0
300.0,-300.0,-289.89,0.0
300.0,-300.0,-400.08,0.0
300.0,-300.0,-541.11,0.0
300.0,-300.0,-709.37,0.0
300.0,-300.0,-900.01,0.0
300.0,-300.0,-1105.63,0.0
300.0,-300.0,-1318.86,0.0
300.0,-300.0,-1530.84,0.0
300.0,-300.0,-1734.4,0.0
300.0,-300.0,-1924.33,0.0
300.0,-300.0,-2097.46,0.0
300.0,-300.0,-2252.6,0.0
300.0,-300.0,-2391.67,0.0
300.0,-300.0,-2515.46,0.0
300.0,-300.0,-2627.32,0.0
300.0,-300.0,-2728.15,0.0
300.0,-300.0,-2818.61,0.0
300.0,-300.0,-2897.51,0.0
300.0,-300.0,-2962.39,0.0
300.0,-300.0,-3008.78,0.0
300.0,-300.0,-3032.56,0.0
300.0,-300.0,-3030.84,0.0
300.0,-300.0,-3003.03,0.0
300.0,-300.0,-2949.0,0.0
300.0,-300.0,-2873.71,0.0
300.0,-300.0,-2782.78,0.0
300.0,-300.0,-2685.48,0.0
300.0,-300.0,-2591.3,0.0
300.0,-300.0,-2509.57,0.0
300.0,-300.0,-2447.01,0.0
300.0,-300.0,-2408.33,0.0
300.0,-300.0,-2393.16,0.0
300.0,-300.0,-2390.92,0.0
300.0,-300.0,-2399.68,0.0
300.0,-300.0,-2407.11,0.0
300.0,-300.0,-2402.49,0.0
300.0,-300.0,-2377.12,0.0
300.0,-300.0,-2323.57,0.0
300.0,-300.0,-2239.14,0.0
300.0,-300.0,-2125.46,0.0
300.0,-300.0,-1988.44,0.0
300.0,-300.0,-1837.72,0.0
300.0,-300.0,-1684.08,0.0
300.0,-300.0,-1539.97,0.0
300.0,-300.0,-1413.53,0.0
300.0,-300.0,-1312.85,0.0
300.0,-300.0,-1240.3,0.0
300.0,-300.0,-1193.91,0.0
300.0,-300.0,-1168.3,0.0
300.0,-300.0,-1154.89,0.0
300.0,-300.0,-1144.03,0.0
300.0,-300.0,-1127.67,0.0
300.0,-300.0,-1096.93,0.0
300.0,-300.0,-1046.19,0.0
300.0,-300.0,-977.87,0.0
300.0,-300.0,-890.64,0.0
300.0,-300.0,-789.5,0.0
300.0,-300.0,-682.12,0.0
300.0,-300.0,-576.11,0.0
300.0,-300.0,-477.79,0.0
300.0,-300.0,-391.82,0.0
300.0,-300.0,-321.47,0.0
300.0,-300.0,-266.25,0.0
300.0,-300.0,-224.27,0.0
300.0,-300.0,-194.98,0.0
300.0,-300.0,-173.97,0.0
300.0,-300.0,-159.9,0.0
300.0,-300.0,-152.55,0.0
300.0,-300.0,-153.75,0.0
300.0,-300.0,-166.71,0.0
300.0,-300.0,-195.8,0.0
300.0,-300.0,-246.82,0.0
300.0,-300.0,-322.83,0.0
300.0,-300.0,-426.33,0.0
300.0,-300.0,-558.31,0.0
300.0,-300.0,-715.64,0.0
300.0,-300.0,-894.51,0.0
300.0,-300.0,-1088.2,0.0
300.0,-300.0,-1289.27,0.0
300.0,-300.0,-1489.9,0.0
300.0,-300.0,-1683.47,0.0
300.0,-300.0,-1866.27,0.0
300.0,-300.0,-2033.64,0.0
300.0,-300.0,-2185.1,0.0
300.0,-300.0,-2321.34,0.0
300.0,-300.0,-2444.06,0.0
300.0,-300.0,-2555.4,0.0
300.0,-300.0,-2656.34,0.0
300.0,-300.0,-2747.05,0.0
300.0,-300.0,-2826.76,0.0
300.0,-300.0,-2892.69,0.0
300.0,-300.0,-2942.02,0.0
300.0,-300.0,-2971.68,0.0
300.0,-300.0,-2977.94,0.0
300.0,-300.0,-2960.77,0.0
300.0,-300.0,-2921.56,0.0
300.0,-300.0,-2863.64,0.0
300.0,-300.0,-2792.89,0.0
300.0,-300.0,-2716.55,0.0
300.0,-300.0,-2643.26,0.0
300.0,-300.0,-2580.66,0.0
300.0,-300.0,-2535.4,0.0
300.0,-300.0,-2512.64,0.0
300.0,-300.0,-2512.1,0.0
300.0,-300.0,-2533.75,0.0
300.0,-300.0,-2572.2,0.0
300.0,-300.0,-2621.07,0.0
300.0,-300.0,-2672.47,0.0
300.0,-300.0,-2718.71,0.0
300.0,-300.0,-2752.3,0.0
300.0,-300.0,-2767.22,0.0
300.0,-300.0,-2752.8,0.0
300.0,-300.0,-2711.18,0.0
300.0,-300.0,-2639.09,0.0
300.0,-300.0,-2538.91,0.0
300.0,-300.0,-2413.78,0.0
300.0,-300.0,-2268.37,0.0
300.0,-300.0,-2108.86,0.0
300.0,-300.0,-1942.13,0.0
300.0,-300.0,-1775.78,0.0
300.0,-300.0,-1617.37,0.0
300.0,-300.0,-1473.83,0.0
300.0,-300.0,-1349.03,0.0
300.0,-300.0,-1253.33,0.0
300.0,-300.0,-1183.12,0.0
300.0,-300.0,-1138.09,0.0
300.0,-300.0,-1116.08,0.0
300.0,-300.0,-1112.0,0.0
300.0,-300.0,-1118.9,0.0
300.0,-300.0,-1129.17,0.0
300.0,-300.0,-1134.29,0.0
300.0,-300.0,-1128.61,0.0
300.0,-300.0,-1104.69,0.0
300.0,-300.0,-1060.54,0.0
300.0,-300.0,-995.45,0.0
300.0,-300.0,-911.4,0.0
300.0,-300.0,-813.11,0.0
300.0,-300.0,-706.9,0.0
300.0,-300.0,-599.14,0.0
300.0,-300.0,-495.77,0.0
300.0,-300.0,-401.95,0.0
300.0,-300.0,-322.09,0.0
300.0,-300.0,-254.99,0.0
300.0,-300.0,-202.18,0.0
300.0,-300.0,-162.62,0.0
300.0,-300.0,-134.72,0.0
300.0,-300.0,-117.67,0.0
300.0,-300.0,-111.7,0.0
300.0,-300.0,-118.71,0.0
300.0,-300.0,-142.16,0.0
300.0,-300.0,-186.23,0.0
300.0,-300.0,-257.27,0.0
300.0,-300.0,-356.49,0.0
300.0,-300.0,-487.5,0.0
300.0,-300.0,-649.39,0.0
300.0,-300.0,-838.75,0.0
300.0,-300.0,-1049.57,0.0
300.0,-300.0,-1274.05,0.0
300.0,-300.0,-1503.25,0.0
300.0,-300.0,-1728.31,0.0
300.0,-300.0,-1941.2,0.0
300.0,-300.0,-2138.02,0.0
300.0,-300.0,-2314.62,0.0
300.0,-300.0,-2471.47,0.0
300.0,-300.0,-2610.18,0.0
300.0,-300.0,-2734.21,0.0
300.0,-300.0,-2846.33,0.0
300.0,-300.0,-2949.24,0.0
300.0,-300.0,-3043.61,0.0
300.0,-300.0,-3128.71,0.0
300.0,-300.0,-3201.68,0.0
300.0,-300.0,-3259.59,0.0
300.0,-300.0,-3296.92,0.0
300.0,-300.0,-3311.2,0.0
300.0,-300.0,-3300.48,0.0
300.0,-300.0,-3265.27,0.0
300.0,-300.0,-3209.09,0.0
300.0,-300.0,-3138.36,0.0
300.0,-300.0,-3061.28,0.0
300.0,-300.0,-2986.94,0.0
300.0,-300.0,-2924.39,0.0
300.0,-300.0,-2880.9,0.0
300.0,-300.0,-2860.59,0.0
300.0,-300.0,-2864.05,0.0
300.0,-300.0,-2889.04,0.0
300.0,-300.0,-2929.47,0.0
300.0,-300.0,-2976.76,0.0
300.0,-300.0,-3022.03,0.0
300.0,-300.0,-3056.03,0.0
300.0,-300.0,-3071.69,0.0
300.0,-300.0,-3064.08,0.0
300.0,-300.0,-3033.06,0.0
300.0,-300.0,-2979.08,0.0
300.0,-300.0,-2905.91,0.0
300.0,-300.0,-2819.03,0.0
300.0,-300.0,-2722.84,0.0
300.0,-300.0,-2622.24,0.0
300.0,-300.0,-2519.01,0.0
300.0,-300.0,-2414.32,0.0
300.0,-300.0,-2307.08,0.0
300.0,-300.0,-2195.09,0.0
300.0,-300.0,-2072.9,0.0
300.0,-300.0,-1947.26,0.0
300.0,-300.0,-1812.9,0.0
300.0,-300.0,-1672.43,0.0
300.0,-300.0,-1531.37,0.0
300.0,-300.0,-1396.17,0.0
300.0,-300.0,-1275.2,0.0
300.0,-300.0,-1175.41,0.0
300.0,-300.0,-1102.95,0.0
300.0,-300.0,-1060.11,0.0
300.0,-300.0,-1045.45,0.0
300.0,-300.0,-1054.53,0.0
300.0,-300.0,-1079.61,0.0
300.0,-300.0,-1110.41,0.0
300.0,-300.0,-1135.75,0.0
300.0,-300.0,-1145.43,0.0
300.0,-300.0,-1131.6,0.0
300.0,-300.0,-1089.54,0.0
300.0,-300.0,-1018.08,0.0
300.0,-300.0,-920.41,0.0
300.0,-300.0,-804.38,0.0
300.0,-300.0,-675.29,0.0
300.0,-300.0,-544.17,0.0
300.0,-300.0,-419.81,0.0
300.0,-300.0,-308.39,0.0
300.0,-300.0,-214.43,0.0
300.0,-300.0,-139.27,0.0
300.0,-300.0,-82.06,0.0
300.0,-300.0,-40.35,0.0
300.0,-300.0,-11.57,0.0
300.0,-300.0,5.78,0.0
300.0,-300.0,13.97,0.0
300.0,-300.0,10.65,0.0
300.0,-300.0,-6.94,0.0
300.0,-300.0,-42.76,0.0
300.0,-300.0,-101.68,0.0
300.0,-300.0,-188.01,0.0
300.0,-300.0,-304.85,0.0
300.0,-300.0,-452.36,0.0
300.0,-300.0,-627.88,0.0
300.0,-300.0,-827.54,0.0
300.0,-300.0,-1041.92,0.0
300.0,-300.0,-1264.12,0.0
300.0,-300.0,-1484.59,0.0
300.0,-300.0,-1695.41,0.0
300.0,-300.0,-1890.43,0.0
300.0,-300.0,-2066.41,0.0
300.0,-300.0,-2222.21,0.0
300.0,-300.0,-2359.29,0.0
300.0,-300.0,-2480.71,0.0
300.0,-300.0,-2590.03,0.0
300.0,-300.0,-2689.63,0.0
300.0,-300.0,-2780.54,0.0
300.0,-300.0,-2862.86,0.0
300.0,-300.0,-2934.09,0.0
300.0,-300.0,-2989.51,0.0
300.0,-300.0,-3024.73,0.0
300.0,-300.0,-3035.46,0.0
300.0,-300.0,-3019.35,0.0
300.0,-300.0,-2976.18,0.0
300.0,-300.0,-2909.81,0.0
300.0,-300.0,-2825.23,0.0
300.0,-300.0,-2730.85,0.0
300.0,-300.0,-2636.65,0.0
300.0,-300.0,-2552.17,0.0
300.0,-300.0,-2485.1,0.0
300.0,-300.0,-2441.16,0.0
300.0,-300.0,-2422.15,0.0
300.0,-300.0,-2426.46,0.0
300.0,-300.0,-2449.04,0.0
300.0,-300.0,-2483.47,0.0
300.0,-300.0,-2519.74,0.0
300.0,-300.0,-2549.23,0.0
300.0,-300.0,-2564.84,0.0
300.0,-300.0,-2560.43,0.0
300.0,-300.0,-2533.24,0.0
300.0,-300.0,-2483.61,0.0
300.0,-300.0,-2412.57,0.0
300.0,-300.0,-2324.19,0.0
300.0,-300.0,-2221.57,0.0
300.0,-300.0,-2102.91,0.0
300.0,-300.0,-1975.15,0.0
300.0,-300.0,-1840.06,0.0
300.0,-300.0,-1698.91,0.0
300.0,-300.0,-1553.43,0.0
300.0,-300.0,-1406.27,0.0
300.0,-300.0,-1260.2,0.0
300.0,-300.0,-1119.88,0.0
300.0,-300.0,-990.76,0.0
300.0,-300.0,-878.89,0.0
300.0,-300.0,-789.93,0.0
300.0,-300.0,-729.67,0.0
300.0,-300.0,-699.12,0.0
300.0,-300.0,-697.7,0.0
300.0,-300.0,-721.77,0.0
300.0,-300.0,-764.36,0.0
300.0,-300.0,-816.08,0.0
300.0,-300.0,-865.9,0.0
300.0,-300.0,-903.43,0.0
300.0,-300.0,-920.04,0.0
300.0,-300.0,-910.25,0.0
300.0,-300.0,-871.99,0.0
300.0,-300.0,-806.49,0.0
300.0,-300.0,-718.65,0.0
300.0,-300.0,-615.99,0.0
300.0,-300.0,-507.25,0.0
300.0,-300.0,-401.13,0.0
300.0,-300.0,-304.26,0.0
300.0,-300.0,-221.28,0.0
300.0,-300.0,-154.64,0.0
300.0,-300.0,-103.55,0.0
300.0,-300.0,-65.51,0.0
300.0,-300.0,-38.9,0.0
300.0,-300.0,-21.2,0.0
300.0,-300.0,-11.16,0.0
300.0,-300.0,-9.63,0.0
300.0,-300.0,-19.88,0.0
300.0,-300.0,-46.62,0.0
300.0,-300.0,-95.31,0.0
300.0,-300.0,-171.27,0.0
300.0,-300.0,-279.74,0.0
300.0,-300.0,-421.15,0.0
300.0,-300.0,-594.75,0.0
300.0,-300.0,-796.69,0.0
300.0,-300.0,-1019.39,0.0
300.0,-300.0,-1253.69,0.0
300.0,-300.0,-1490.13,0.0
300.0,-300.0,-1719.3,0.0
300.0,-300.0,-1932.79,0.0
300.0,-300.0,-2125.61,0.0
300.0,-300.0,-2295.35,0.0
300.0,-300.0,-2440.86,0.0
300.0,-300.0,-2563.53,0.0
300.0,-300.0,-2666.6,0.0
300.0,-300.0,-2752.82,0.0
300.0,-300.0,-2823.9,0.0
300.0,-300.0,-2881.04,0.0
300.0,-300.0,-2923.46,0.0
300.0,-300.0,-2949.47,0.0
300.0,-300.0,-2957.06,0.0
300.0,-300.0,-2944.93,0.0
300.0,-300.0,-2911.71,0.0
300.0,-300.0,-2859.15,0.0
300.0,-300.0,-2791.12,0.0
300.0,-300.0,-2714.03,0.0
300.0,-300.0,-2635.71,0.0
300.0,-300.0,-2565.52,0.0
300.0,-300.0,-2512.16,0.0
300.0,-300.0,-2483.38,0.0
300.0,-300.0,-2483.71,0.0
300.0,-300.0,-2515.17,0.0
300.0,-300.0,-2573.77,0.0
300.0,-300.0,-2654.54,0.0
300.0,-300.0,-2748.12,0.0
300.0,-300.0,-2844.16,0.0
300.0,-300.0,-2931.66,0.0
300.0,-300.0,-3000.55,0.0
300.0,-300.0,-3043.33,0.0
300.0,-300.0,-3055.58,0.0
300.0,-300.0,-3036.5,0.0
300.0,-300.0,-2990.91,0.0
300.0,-300.0,-2920.5,0.0
300.0,-300.0,-2833.83,0.0
300.0,-300.0,-2736.5,0.0
300.0,-300.0,-2633.17,0.0
300.0,-300.0,-2527.14,0.0
300.0,-300.0,-2418.86,0.0
300.0,-300.0,-2306.6,0.0
300.0,-300.0,-2188.32,0.0
300.0,-300.0,-2059.97,0.0
300.0,-300.0,-1914.28,0.0
300.0,-300.0,-1760.26,0.0
300.0,-300.0,-1591.99,0.0
300.0,-300.0,-1414.09,0.0
300.0,-300.0,-1234.91,0.0
300.0,-300.0,-1064.22,0.0
300.0,-300.0,-912.32,0.0
300.0,-300.0,-788.66,0.0
300.0,-300.0,-699.93,0.0
300.0,-300.0,-649.18,0.0
300.0,-300.0,-633.21,0.0
300.0,-300.0,-649.11,0.0
300.0,-300.0,-687.29,0.0
300.0,-300.0,-735.93,0.0
300.0,-300.0,-782.92,0.0
300.0,-300.0,-816.41,0.0
300.0,-300.0,-827.34,0.0
300.0,-300.0,-809.54,0.0
300.0,-300.0,-760.76,0.0
300.0,-300.0,-683.49,0.0
300.0,-300.0,-583.0,0.0
300.0,-300.0,-467.2,0.0
300.0,-300.0,-345.55,0.0
300.0,-300.0,-227.06,0.0
300.0,-300.0,-119.16,0.0
300.0,-300.0,-26.98,0.0
300.0,-300.0,46.34,0.0
300.0,-300.0,100.88,0.0
300.0,-300.0,137.16,0.0
300.0,-300.0,156.01,0.0
300.0,-300.0,159.52,0.0
300.0,-300.0,147.45,0.0
300.0,-300.0,119.18,0.0
300.0,-300.0,72.31,0.0
300.0,-300.0,2.45,0.0
300.0,-300.0,-93.76,0.0
300.0,-300.0,-220.37,0.0
300.0,-300.0,-378.83,0.0
300.0,-300.0,-568.82,0.0
300.0,-300.0,-788.26,0.0
300.0,-300.0,-1030.69,0.0
300.0,-300.0,-1287.8,0.0
300.0,-300.0,-1551.52,0.0
300.0,-300.0,-1812.35,0.0
300.0,-300.0,-2062.69,0.0
300.0,-300.0,-2296.25,0.0
300.0,-300.0,-2509.5,0.0
300.0,-300.0,-2701.03,0.0
300.0,-300.0,-2872.33,0.0
300.0,-300.0,-3027.43,0.0
300.0,-300.0,-3167.43,0.0
300.0,-300.0,-3294.91,0.0
300.0,-300.0,-3410.14,0.0
300.0,-300.0,-3512.07,0.0
300.0,-300.0,-3596.17,0.0
300.0,-300.0,-3657.51,0.0
300.0,-300.0,-3690.71,0.0
300.0,-300.0,-3690.74,0.0
300.0,-300.0,-3655.17,0.0
300.0,-300.0,-3585.38,0.0
300.0,-300.0,-3484.53,0.0
300.0,-300.0,-3359.85,0.0
300.0,-300.0,-3223.06,0.0
300.0,-300.0,-3084.82,0.0
300.0,-300.0,-2957.14,0.0
300.0,-300.0,-2849.69,0.0
300.0,-300.0,-2769.5,0.0
300.0,-300.0,-2719.29,0.0
300.0,-300.0,-2697.43,0.0
300.0,-300.0,-2698.1,0.0
300.0,-300.0,-2713.2,0.0
300.0,-300.0,-2731.51,0.0
300.0,-300.0,-2743.17,0.0
300.0,-300.0,-2738.33,0.0
300.0,-300.0,-2710.54,0.0
300.0,-300.0,-2656.04,0.0
300.0,-300.0,-2575.37,0.0
300.0,-300.0,-2471.54,0.0
300.0,-300.0,-2350.16,0.0
300.0,-300.0,-2210.28,0.0
300.0,-300.0,-2063.28,0.0
300.0,-300.0,-1909.85,0.0
300.0,-300.0,-1755.17,0.0
300.0,-300.0,-1600.55,0.0
300.0,-300.0,-1447.43,0.0
300.0,-300.0,-1297.12,0.0
300.0,-300.0,-1150.87,0.0
300.0,-300.0,-1011.01,0.0
300.0,-300.0,-881.58,0.0
300.0,-300.0,-768.85,0.0
300.0,-300.0,-675.66,0.0
300.0,-300.0,-610.34,0.0
300.0,-300.0,-571.79,0.0
300.0,-300.0,-561.74,0.0
300.0,-300.0,-578.35,0.0
300.0,-300.0,-616.24,0.0
300.0,-300.0,-667.25,0.0
300.0,-300.0,-721.54,0.0
300.0,-300.0,-770.8,0.0
300.0,-300.0,-805.85,0.0
300.0,-300.0,-819.88,0.0
300.0,-300.0,-811.76,0.0
300.0,-300.0,-780.03,0.0
300.0,-300.0,-728.57,0.0
300.0,-300.0,-663.56,0.0
300.0,-300.0,-590.08,0.0
300.0,-300.0,-513.16,0.0
300.0,-300.0,-435.21,0.0
300.0,-300.0,-52.3,0.0
300.0,-300.0,832.03,0.0
300.0,-300.0,2423.66,0.0
300.0,-300.0,4988.26,0.0
300.0,-300.0,0.0,0.0
300.0,-300.0,0.0,0.0
300.0,-300.0,0.0,0.0
300.0,-300.0,0.0,0.0
300.0,-300.0,0.0,0.0
300.0,-300.0,0.0,0.0
300.0,-300.0,0.0,0.0
300.0,-300.0,0.0,0.0
300.0,-300.0,0.0,0.0
300.0,-300.0,0.0,0.0
300.0,-300.0,0.0,0.0
300.0,-300.0,0.0,0.0
300.0,-300.0,0.0,0.0
300.0,-300.0,0.0,0.0
300.0,-300.0,0.0,0.0
300.0,-300.0,0.0,0.0
300.0,-300.0,0.0,0.0
300.0,-300.0,0.0,0.0
300.0,-300.0,0.0,0.0
300.0,-300.0,0.0,0.0
300.0,-300.0,0.0,0.0
300.0,-300.0,0.0,0.0
300.0,-300.0,0.0,0.0
300.0,-300.0,0.0,0.0
300.0,-300.0,0.0,0.0
300.0,-300.0,0.0,0.0
300.0,-300.0,0.0,0.0
300.0,-300.0,0.0,0.0
300.0,-300.0,0.0,0.0
300.0,-300.0,0.0,0.0
300.0,-300.0,0.0,0.0
300.0,-300.0,0.0,0.0
300.0,-300.0,0.0,0.0
300.0,-300.0,0.0,0.0
300.0,-300.0,0.0,0.0
300.0,-300.0,0.0,0.0
300.0,-300.0,0.0,0.0
300.0,-300.0,0.0,0.0
300.0,-300.0,0.0,0.0
300.0,-300.0,0.0,0.0
300.0,-300.0,0.0,0.0
300.0,-300.0,0.0,0.0
300.0,-300.0,0.0,0.0
300.0,-300.0,0.0,0.0
300.0,-300.0,0.0,0.0
300.0,-300.0,0.0,0.0
300.0,-300.0,0.0,0.0
300.0,-300.0,0.0,0.0
300.0,-300.0,0.0,0.0
300.0,-300.0,0.0,0.0
300.0,-300.0,0.0,0.0
300.0,-300.0,0.0,0.0
300.0,-300.0,0.0,0.0
300.0,-300.0,0.0,0.0
300.0,-300.0,0.0,0.0
300.0,-300.0,0.0,0.0
300.0,-300.0,0.0,0.0
300.0,-300.0,0.0,0.0
300.0,-300.0,0.0,0.0
300.0,-300.0,0.0,0.0
300.0,-300.0,0.0,0.0
300.0,-300.0,0.0,0.0
300.0,-300.0,0.0,0.0
300.0,-300.0,0.0,0.0
300.0,-300.0,0.0,0.0
300.0,-300.0,0.0,0.0
300.0,-300.0,0.0,0.0
300.0,-300.0,0.0,0.0
300.0,-300.0,0.0,0.0
300.0,-300.0,0.0,0.0
300.0,-300.0,0.0,0.0
300.0,-300.0,0.0,0.0
300.0,-300.0,0.0,0.0
300.0,-300.0,0.0,0.0
300.0,-300.0,0.0,0.0
300.0,-300.0,0.0,0.0
300.0,-300.0,0.0,0.0
300.0,-300.0,0.0,0.0
300.0,-300.0,0.0,0.0
300.0,-300.0,0.0,0.0
300.0,-300.0,0.0,0.0
300.0,-300.0,0.0,0.0
300.0,-300.0,0.0,0.0
300.0,-300.0,0.0,0.0
300.0,-300.0,0.0,0.0
300.0,-300.0,0.0,0.0
300.0,-300.0,0.0,0.0
300.0,-300.0,0.0,0.0
300.0,-300.0,0.0,0.0
300.0,-300.0,0.0,0.0
300.0,-300.0,0.0,0.0
300.0,-300.0,0.0,0.0
300.0,-300.0,0.0,0.0
300.0,-300.0,0.0,0.0
300.0,-300.0,0.0,0.0
300.0,-300.0,0.0,0.0
300.0,-300.0,0.0,0.0
300.0,-300.0,0.0,0.0
300.0,-300.0,0.0,0.0
300.0,-300.0,0.0,0.0
300.0,-300.0,0.0,0.0
300.0,-300.0,0.0,0.0
300.0,-300.0,0.0,0.0
300.0,-300.0,0.0,0.0
300.0,-300.0,0.0,0.0
300.0,-300.0,0.0,0.0
300.0,-300.0,0.0,0.0
300.0,-300.0,0.0,0.0
300.0,-300.0,0.0,0.0
300.0,-300.0,0.0,0.0
300.0,-300.0,0.0,0.0
300.0,-300.0,0.0,0.0
300.0,-300.0,0.0,0.0
300.0,-300.0,0.0,0.0
300.0,-300.0,0.0,0.0
300.0,-300.0,0.0,0.0
300.0,-300.0,0.0,0.0
300.0,-300.0,0.0,0.0
300.0,-300.0,0.0,0.0
300.0,-300.0,0.0,0.0
300.0,-300.0,0.0,0.0
300.0,-300.0,0.0,0.0
300.0,-300.0,0.0,0.0
300.0,-300.0,0.0,0.0
300.0,-300.0,0.0,0.0
300.0,-300.0,0.0,0.0
300.0,-300.0,0.0,0.0
300.0,-300.0,0.0,0.0
300.0,-300.0,0.0,0.0
300.0,-300.0,0.0,0.0
300.0,-300.0,0.0,0.0
300.0,-300.0,0.0,0.0
300.0,-300.0,0.0,0.0
300.0,-300.0,0.0,0.0
300.0,-300.0,0.0,0.0
300.0,-300.0,0.0,0.0
300.0,-300.0,0.0,0.0
300.0,-300.0,0.0,0.0
300.0,-300.0,0.0,0.0
300.0,-300.0,0.0,0.0
300.0,-300.0,0.0,0.0
300.0,-300.0,0.0,0.0
300.0,-300.0,0.0,0.0
300.0,-300.0,0.0,0.0
300.0,-300.0,0.0,0.0
300.0,-300.0,0.0,0.0
300.0,-300.0,0.0,0.0
300.0,-300.0,0.0,0.0
300.0,-300.0,0.0,0.0
300.0,-300.0,0.0,0.0
300.0,-300.0,0.0,0.0
300.0,-300.0,0.0,0.0
300.0,-300.0,0.0,0.0
300.0,-300.0,0.0,0.0
300.0,-300.0,0.0,0.0
300.0,-300.0,0.0,0.0
300.0,-300.0,0.0,0.0
300.0,-300.0,0.0,0.0
300.0,-300.0,0.0,0.0
300.0,-300.0,0.0,0.0
300.0,-300.0,0.0,0.0
300.0,-300.0,0.0,0.0
300.0,-300.0,0.0,0.0
300.0,-300.0,0.0,0.0
300.0,-300.0,0.0,0.0
300.0,-300.0,0.0,0.0
300.0,-300.0,0.0,0.0
300.0,-300.0,0.0,0.0
300.0,-300.0,0.0,0.0
300.0,-300.0,0.0,0.0
300.0,-300.0,0.0,0.0
300.0,-300.0,0.0,0.0
300.0,-300.0,0.0,0.0
300.0,-300.0,0.0,0.0
300.0,-300.0,0.0,0.0
300.0,-300.0,0.0,0.0
300.0,-300.0,0.0,0.0
300.0,-300.0,0.0,0.0
300.0,-300.0,0.0,0.0
300.0,-300.0,0.0,0.0
300.0,-300.0,0.0,0.0
300.0,-300.0,0.0,0.0
300.0,-300.0,0.0,0.0
300.0,-300.0,0.0,0.0
300.0,-300.0,0.0,0.0
300.0,-300.0,0.0,0.0
300.0,-300.0,0.0,0.0
300.0,-300.0,0.0,0.0
300.0,-300.0,0.0,0.0
300.0,-300.0,0.0,0.0
300.0,-300.0,0.0,0.0
300.0,-300.0,0.0,0.0
300.0,-300.0,0.0,0.0
300.0,-300.0,0.0,0.0
300.0,-300.0,0.0,0.0
300.0,-300.0,0.0,0.0
300.0,-300.0,0.0,0.0
300.0,-300.0,0.0,0.0
300.0,-300.0,0.0,0.0
300.0,-300.0,0.0,0.0
300.0,-300.0,0.0,0.0
300.0,-300.0,0.0,0.0
300.0,-300.0,0.0,0.0
300.0,-300.0,0.0,0.0
300.0,-300.0,0.0,0.0
300.0,-300.0,0.0,0.0
300.0,-300.0,0.0,0.0
300.0,-300.0,0.0,0.0
300.0,-300.0,0.0,0.0
300.0,-300.0,0.0,0.0
300.0,-300.0,0.0,0.0
300.0,-300.0,0.0,0.0
300.0,-300.0,0.0,0.0
300.0,-300.0,0.0,0.0
300.0,-300.0,0.0,0.0
300.0,-300.0,0.0,0.0
300.0,-300.0,0.0,0.0
300.0,-300.0,0.0,0.0
300.0,-300.0,0.0,0.0
300.0,-300.0,0.0,0.0
300.0,-300.0,0.0,0.0
300.0,-300.0,0.0,0.0
300.0,-300.0,0.0,0.0
300.0,-300.0,0.0,0.0
300.0,-300.0,0.0,0.0
300.0,-300.0,0.0,0.0
300.0,-300.0,0.0,0.0
300.0,-300.0,0.0,0.0
300.0,-300.0,0.0,0.0
300.0,-300.0,0.0,0.0
300.0,-300.0,0.0,0.0
300.0,-300.0,0.0,0.0
300.0,-300.0,0.0,0.0
300.0,-300.0,0.0,0.0
300.0,-300.0,0.0,0.0
300.0,-300.0,0.0,0.0
300.0,-300.0,0.0,0.0
300.0,-300.0,0.0,0.0
300.0,-300.0,0.0,0.0
300.0,-300.0,0.0,0.0
300.0,-300.0,0.0,0.0
300.0,-300.0,0.0,0.0
300.0,-300.0,0.0,0.0
300.0,-300.0,0.0,0.0
300.0,-300.0,0.0,0.0
300.0,-300.0,0.0,0.0
300.0,-300.0,0.0,0.0
300.0,-300.0,0.0,0.0
300.0,-300.0,0.0,0.0
300.0,-300.0,0.0,0.0
300.0,-300.0,0.0,0.0
300.0,-300.0,0.0,0.0
300.0,-300.0,0.0,0.0
300.0,-300.0,0.0,0.0
300.0,-300.0,0.0,0.0
300.0,-300.0,0.0,0.0
300.0,-300.0,0.0,0.0
300.0,-300.0,0.0,0.0
300.0,-300.0,0.0,0.0
300.0,-300.0,0.0,0.0
300.0,-300.0,0.0,0.0
300.0,-300.0,0.0,0.0
300.0,-300.0,0.0,0.0
300.0,-300.0,0.0,0.0
300.0,-300.0,0.0,0.0
300.0,-300.0,0.0,0.0
300.0,-300.0,0.0,0.0
300.0,-300.0,0.0,0.0
300.0,-300.0,0.0,0.0
300.0,-300.0,0.0,0.0
300.0,-300.0,0.0,0.0
300.0,-300.0,0.0,0.0
300.0,-300.0,0.0,0.0
300.0,-300.0,0.0,0.0
300.0,-300.0,0.0,0.0
300.0,-300.0,0.0,0.0
300.0,-300.0,0.0,0.0
300.0,-300.0,0.0,0.0
300.0,-300.0,0.0,0.0
300.0,-300.0,0.0,0.0
300.0,-300.0,0.0,0.0
300.0,-300.0,0.0,0.0
300.0,-300.0,0.0,0.0
300.0,-300.0,0.0,0.0
300.0,-300.0,0.0,0.0
300.0,-300.0,0.0,0.0
300.0,-300.0,0.0,0.0
300.0,-300.0,0.0,0.0
300.0,-300.0,0.0,0.0
300.0,-300.0,0.0,0.0
300.0,-300.0,0.0,0.0
300.0,-300.0,0.0,0.0
300.0,-300.0,0.0,0.0
300.0,-300.0,0.0,0.0
300.0,-300.0,0.0,0.0
300.0,-300.0,0.0,0.0
300.0,-300.0,0.0,0.0
300.0,-300.0,0.0,0.0
300.0,-300.0,0.0,0.0
300.0,-300.0,0.0,0.0
300.0,-300.0,0.0,0.0
300.0,-300.0,0.0,0.0
300.0,-300.0,0.0,0.0
300.0,-300.0,0.0,0.0
300.0,-300.0,0.0,0.0
300.0,-300.0,0.0,0.0
300.0,-300.0,0.0,0.0
300.0,-300.0,0.0,0.0
300.0,-300.0,0.0,0.0
300.0,-300.0,0.0,0.0
300.0,-300.0,0.0,0.0
300.0,-300.0,0.0,0.0
300.0,-300.0,0.0,0.0
300.0,-300.0,0.0,0.0
300.0,-300.0,0.0,0.0
300.0,-300.0,0.0,0.0
300.0,-300.0,0.0,0.0
300.0,-300.0,0.0,0.0
300.0,-300.0,0.0,0.0
300.0,-300.0,0.0,0.0
300.0,-300.0,0.0,0.0
300.0,-300.0,0.0,0.0
300.0,-300.0,0.0,0.0
300.0,-300.0,0.0,0.0
300.0,-300.0,0.0,0.0
300.0,-300.0,0.0,0.0
300.0,-300.0,0.0,0.0
300.0,-300.0,0.0,0.0
300.0,-300.0,0.0,0.0
300.0,-300.0,0.0,0.0
300.0,-300.0,0.0,0.0
300.0,-300.0,0.0,0.0
300.0,-300.0,0.0,0.0
300.0,-300.0,0.0,0.0
300.0,-300.0,0.0,0.0
300.0,-300.0,0.0,0.0
300.0,-300.0,0.0,0.0
300.0,-300.0,0.0,0.0
300.0,-300.0,0.0,0.0
300.0,-300.0,0.0,0.0
300.0,-300.0,0.0,0.0
300.0,-300.0,0.0,0.0
300.0,-300.0,0.0,0.0
300.0,-300.0,0.0,0.0
300.0,-300.0,0.0,0.0
300.0,-300.0,0.0,0.0
300.0,-300.0,0.0,0.0
300.0,-300.0,0.0,0.0
300.0,-300.0,0.0,0.0
300.0,-300.0,0.0,0.0
300.0,-300.0,0.0,0.0
300.0,-300.0,0.0,0.0
300.0,-300.0,0.0,0.0
300.0,-300.0,0.0,0.0
300.0,-300.0,0.0,0.0
300.0,-300.0,0.0,0.0
300.0,-300.0,0.0,0.0
300.0,-300.0,0.0,0.0
300.0,-300.0,0.0,0.0
300.0,-300.0,0.0,0.0
300.0,-300.0,0.0,0.0
300.0,-300.0,0.0,0.0
300.0,-300.0,0.0,0.0
300.0,-300.0,0.0,0.0
300.0,-300.0,0.0,0.0
300.0,-300.0,0.0,0.0
300.0,-300.0,0.0,0.0
300.0,-300.0,0.0,0.0
300.0,-300.0,0.0,0.0
300.0,-300.0,0.0,0.0
300.0,-300.0,0.0,0.0
300.0,-300.0,0.0,0.0
300.0,-300.0,0.0,0.0
300.0,-300.0,0.0,0.0
300.0,-300.0,0.0,0.0
300.0,-300.0,0.0,0.0
300.0,-300.0,0.0,0.0
300.0,-300.0,0.0,0.0
300.0,-300.0,0.0,0.0
300.0,-300.0,0.0,0.0
300.0,-300.0,0.0,0.0
300.0,-300.0,0.0,0.0
300.0,-300.0,0.0,0.0
300.0,-300.0,0.0,0.0
300.0,-300.0,0.0,0.0
300.0,-300.0,0.0,0.0
300.0,-300.0,0.0,0.0
300.0,-300.0,0.0,0.0
300.0,-300.0,0.0,0.0
300.0,-300.0,0.0,0.0
300.0,-300.0,0.0,0.0
300.0,-300.0,0.0,0.0
300.0,-300.0,0.0,0.0
300.0,-300.0,0.0,0.0
300.0,-300.0,0.0,0.0
300.0,-300.0,0.0,0.0
300.0,-300.0,0.0,0.0
300.0,-300.0,0.0,0.0
300.0,-300.0,0.0,0.0
300.0,-300.0,0.0,0.0
300.0,-300.0,0.0,0.0
300.0,-300.0,0.0,0.0
300.0,-300.0,0.0,0.0
300.0,-300.0,0.0,0.0
300.0,-300.0,0.0,0.0
300.0,-300.0,0.0,0.0
300.0,-300.0,0.0,0.0
300.0,-300.0,0.0,0.0
300.0,-300.0,0.0,0.0
300.0,-300.0,0.0,0.0
300.0,-300.0,0.0,0.0
300.0,-300.0,0.0,0.0
300.0,-300.0,0.0,0.0
300.0,-300.0,0.0,0.0
300.0,-300.0,0.0,0.0
300.0,-300.0,0.0,0.0
300.0,-300.0,0.0,0.0
300.0,-300.0,0.0,0.0
300.0,-300.0,0.0,0.0
300.0,-300.0,0.0,0.0
300.0,-300.0,0.0,0.0
300.0,-300.0,0.0,0.0
300.0,-300.0,0.0,0.0
300.0,-300.0,0.0,0.0
300.0,-300.0,0.0,0.0
300.0,-300.0,0.0,0.0
300.0,-300.0,0.0,0.0
300.0,-300.0,0.0,0.0
300.0,-300.0,0.0,0.0
300.0,-300.0,0.0,0.0
300.0,-300.0,0.0,0.0
300.0,-300.0,0.0,0.0
300.0,-300.0,0.0,0.0
300.0,-300.0,0.0,0.0
300.0,-300.0,0.0,0.0
300.0,-300.0,0.0,0.0
300.0,-300.0,0.0,0.0
