Original,Filtered
-54069.48708618061,-3735.22885837128
-54199.57941259056,-3756.819530828351
-54375.69988328168,-3832.146911460483
-54636.61984588585,-4005.116850040663
-55007.059363023145,-4301.341518741176
-55492.05716943927,-4722.329585129715
-56073.52281145949,-5243.401870368635
-56710.13052906877,-5816.001169622053
-57341.45464912545,-6374.439859352309
-57896.504750035136,-6846.328219704509
-58305.71780100997,-7165.088628505645
-58514.30933994701,-7282.296507095934
-58494.08588548281,-7177.3230884975865
-58250.71833424319,-6862.049657320528
-57824.24508375367,-6379.306042651339
-57282.09445129545,-5795.015605890885
-56705.82030067722,-5185.507718805667
-56174.49354939202,-4622.704297626649
-55748.74646779409,-4160.5376667026885
-55459.464704817896,-3825.783952666578
-55304.002327925264,-3615.485074802458
-55250.82840006673,-3501.5064636012235
-55251.24339181223,-3440.9497788665626
-55254.87308527801,-3389.603804461402
-55224.6202402565,-3314.8071428250328
-55146.93721304646,-3204.2596845481007
-55034.63222220757,-3068.434763125124
-54921.55676733255,-2936.018403543721
-54850.83355981849,-2843.750229937663
-54860.11570352065,-2823.6184868709993
-54968.20417361781,-2891.122997209508
-55166.95812319876,-3038.0456620037803
-55420.93901628287,-3231.9310173846484
-55675.05659245596,-3422.6239684092498
-55868.25031178939,-3554.255784895702
-55949.559255108434,-3579.555193371023
-55892.26312484877,-3472.702099922997
-55702.28373163697,-3237.306497980839
-55418.56291616326,-2907.3676778907484
-55105.24530983014,-2540.8865410063736
-54837.61695925727,-2207.667694470495
-54685.31399405111,-1974.2662753295897
-54696.92557254374,-1889.6575916981299
-54889.645537018085,-1974.9162470744684
-55246.2462248186,-2219.113907935669
-55719.76258295168,-2582.104709102554
-56244.40204869989,-3003.2795522246493
-56749.82363590023,-3414.1224086294746
-57175.37232924724,-3751.7528395650784
-57481.18373955898,-3970.6688778379885
-57654.11459604188,-4050.517286380796
-57707.85224682868,-3998.695752638329
-57677.90338155127,-3847.6718349510274
-57613.11900284145,-3647.856851472077
-57565.806897315415,-3457.552019565321
-57582.33753058797,-3331.836316043365
-57695.64616321917,-3312.3115473836597
-57920.42418381193,-3419.4153534926086
-58251.28894398904,-3648.6110527105725
-58663.91859917436,-3971.1997400700484
-59118.99619058712,-4339.800526073427
-59568.67863528246,-4697.752208052492
-59965.04549571532,-4990.8928694722445
-60269.5232820846,-5179.518566034673
-60461.71776619605,-5247.990906662183
-60545.64499750127,-5209.624356011155
-60551.325489021845,-5105.22398132259
-60530.318701804186,-4994.908203328805
-60545.05496408084,-4944.417763857429
-60653.534976001305,-5008.62235407976
-60892.643441284265,-5215.974756548471
-61264.38663768426,-5557.874550020533
-61729.326247189005,-5986.114277830839
-62210.14183769347,-6419.874594893881
-62605.812451006925,-6761.464920789979
-62813.96412897428,-6917.724441649732
-62756.32828419046,-6822.315850768605
-62400.83690441108,-6453.5604578602115
-61774.19554642901,-5843.214223608158
-60960.88583193874,-5073.556529301293
-60087.96558526828,-4262.904751326215
-59298.82872103836,-3542.4956347814195
-58722.16998737384,-3029.856510598129
-58443.84802794173,-2804.743426109539
-58488.69320919148,-2893.1809691732324
-58816.718821483446,-3263.2237763023295
-59334.39979987992,-3833.257785386445
-59917.76720019694,-4490.686012704917
-60441.1365843073,-5116.451203948259
-60804.136412531625,-5609.623432258975
-60950.57502061704,-5906.495178962567
-60875.22764894622,-5990.172331548569
-60618.023050233394,-5889.084986431705
-60248.35449645925,-5665.521756748252
-59844.4498350662,-5397.545470308272
-59473.40960587197,-5158.95594057007
-59176.647685432334,-5002.077802354845
-58963.48739766536,-4947.132476191656
-58813.26915871163,-4980.137528627497
-58684.22599590454,-5059.160067399452
-58526.09018794181,-5126.853023490901
-58293.089101595695,-5125.939502245973
-57954.53753264112,-5013.905455081279
-57501.28148644668,-4773.620244793059
-56947.39780380673,-4417.742111547462
-56327.49513529037,-3986.2704353632475
-55690.561367746006,-3538.127359382254
-55091.59325525141,-3138.872620815294
-54582.34761133465,-2847.354861614902
-54202.58469705444,-2704.179283144711
-53973.16289619539,-2724.349132630864
-53892.22310233302,-2895.4499601066127
-53935.362615426304,-3181.5039726595255
-54060.05686906272,-3531.383728271375
-54213.69969024165,-3889.6973438044274
-54343.68151091456,-4207.553803210036
-54407.21463241987,-4450.709806041866
-54378.44150127556,-4603.2877491850495
-54250.901530216506,-4666.398713247799
-54034.635709083246,-4652.343889038101
-53748.78076525533,-4576.270461819579
-53411.971838577374,-4447.897733858453
-53033.73775800712,-4265.975306307224
-52609.9715846137,-4017.4262322250274
-52124.43283247009,-3681.8086700976123
-51556.35487942936,-3240.1302773123643
-50892.14649268606,-2685.610055191239
-50137.558530852,-2033.1334333829047
-49326.10438845743,-1324.182806366329
-48520.24930334883,-625.0077678502234
-47803.78917232717,-17.516228212579534
-47266.40515350595,415.6202145436431
-46983.85680009092,608.4007220823329
-46998.88394612447,527.2449624181673
-47308.10137605696,180.94995035948818
-47858.85087846519,-378.0187737641567
-48557.45515326492,-1061.7122047417126
-49287.2956114444,-1762.81688954297
-49932.475473928906,-2375.1544845291933
-50401.30181584849,-2813.88839173999
-50643.869510443146,-3030.842911814226
-50659.635101130974,-3021.5948284097035
-50493.566285838526,-2823.0793508381316
-50222.4536351681,-2502.7903840760196
-49935.42428365294,-2142.6197179613255
-49713.92920679863,-1821.463495818271
-49616.19096155633,-1600.682415195464
-49669.45844363039,-1515.4124515796777
-49870.969833566654,-1572.9499744590817
-50196.03711502499,-1757.5114111349037
-50609.86721596088,-2039.131111736095
-51079.10452677289,-2383.6996999863272
-51579.715145582166,-2761.2945456014363
-52099.429287441,-3150.8765291206564
-52634.93759117136,-3540.7745869196833
-53185.74042473831,-3925.713444817609
-53747.45490889709,-4302.071306553906
-54307.26763775768,-4663.355271852436
-54843.20895331522,-4997.539558937054
-55327.43062190191,-5287.108173133053
-55732.24073700746,-5511.681297809501
-56036.76325190946,-5652.297000423639
-56232.01455772115,-5695.992803348871
-56322.876918077,-5639.363120137359
-56326.59999938931,-5490.182673005478
-56268.62777836651,-5266.798675341461
-56177.31383684421,-4995.589013602792
-56079.21209699024,-4707.187152215726
-55996.12914837137,-4432.309303759785
-55944.24838452974,-4197.913121573325
-55934.76581116326,-4024.1731401658517
-55974.96273568157,-3922.5018989549835
-56068.674530557655,-3894.670181717774
-56215.6512435976,-3933.011896665523
-56410.09003573484,-4021.6983150874275
-56639.29114086006,-4139.0545968253355
-56883.62991869912,-4260.79911665875
-57118.70552554023,-4363.8933679652355
-57319.71785434823,-4430.445675351366
-57467.14668752966,-4450.918386512175
-57552.05839494179,-4425.860998398554
-57579.18277813406,-4365.605632547194
-57566.4249885296,-4287.808184087938
-57540.56858327762,-4213.294141010803
-57530.22443053385,-4161.197400313104
-57558.11551566573,-4144.674196950959
-57635.15552419982,-4168.398708588764
-57758.297241862805,-4228.580299296496
-57912.91634076127,-4315.496471326897
-58078.94992602479,-4417.7306027141
-58238.6631006389,-4526.701929036518
-58383.25952634581,-4639.8948704122695
-58515.851581339295,-4761.5306730250595
-58649.49882802202,-4900.206560168355
-58800.731171733576,-5064.032790871567
-58980.621944515886,-5254.713116906434
-59186.490903032725,-5462.533866937051
-59397.324912992015,-5664.154157022285
-59574.96204704373,-5824.405400623898
-59671.30784998232,-5902.186410752396
-59639.90556473404,-5859.3017492699755
-59448.69845306765,-5670.10818221223
-59090.29250293409,-5329.417213926317
-58586.631476462746,-4856.400506216097
-57986.55356193967,-4293.199154613015
-57356.72214211815,-3698.2908642413777
-56768.28781174601,-3136.042945928023
-56282.78133931519,-2664.8857581000807
-55940.83431064528,-2326.89765636756
-55756.38930245912,-2141.2031355200993
-55717.42097011746,-2102.5684710535756
-55792.37108272289,-2185.2270440990696
-55940.0487606982,-2350.6594841977585
-56120.05965779647,-2557.146281029983
-56301.03964237898,-2768.630935854124
-56464.92478016716,-2960.822024572098
-56606.83237095828,-3123.3749660518993
-56731.41542743405,-3258.143242381396
-56847.41159429056,-3374.54011175
-56962.338533807706,-3483.721063373854
-57078.91103151751,-3593.427871458101
-57193.9705968534,-3704.9347667646557
-57299.82662705557,-3812.7641931900653
-57387.19135784185,-3906.9464505341184
-57448.53944987922,-3976.8516429022334
-57480.77597301274,-4015.2278198842464
-57486.4696400234,-4021.1226162505614
-57473.431639288414,-4000.8000070404128
-57452.91485958231,-3966.431879691061
-57437.039270905705,-3933.0324043547607
-57436.16212266208,-3914.607535424052
-57456.82349255763,-3920.676123323139
-57500.67848785232,-3954.149331453936
-57564.5548133535,-4011.103036318474
-57641.520936938585,-4082.393257100634
-57722.65055177759,-4156.526991684406
-57799.04743176257,-4222.866158061357
-57863.657210268655,-4274.19947968382
-57912.444610571365,-4307.965562882329
-57944.65829190985,-4325.864447477735
-57962.12996452152,-4332.111959364337
-57967.82308953066,-4331.014724513109
-57964.09618028568,-4324.7486400831895
-57951.29169920837,-4312.1513907826475
-57927.23603277534,-4289.013639689235
-57888.00633910842,-4249.87117883281
-57829.92388193751,-4190.804310124298
-57752.27695482323,-4112.388100691699
-57659.90927725215,-4021.817467818468
-57564.67727607428,-3933.3952610713345
-57484.96702131743,-3866.980283199562
-57442.95419656079,-3844.5367175240003
-57459.96343352964,-3885.4587235171703
-57550.93371595883,-4001.718080201236
-57719.40911197475,-4193.99530258989
-57954.49073568205,-4449.773143523904
-58230.77017581129,-4743.942498096387
-58511.52049853843,-5041.9062635912705
-58754.56304177432,-5304.6116115256
-58919.51640573746,-5494.532956352415
-58974.784733501656,-5581.459710078702
-58902.75436987164,-5547.040175448326
-58702.197451667045,-5387.350806965841
-58387.64161276359,-5113.200909500572
-57986.21691082002,-4748.327798440266
-57533.0033561166,-4325.981834534353
-57066.04625461451,-3884.58213936946
-56621.98762149996,-3463.1345349999647
-56232.81088099317,-3096.9845689901776
-55923.71249472799,-2814.299553722551
-55711.78861139799,-2633.5036171592465
-55605.15915830354,-2561.7735428129877
-55602.33766859624,-2594.647973991345
-55691.96738909808,-2716.7811350867214
-55853.30969488304,-2903.839536236626
-56057.93461577709,-3125.4569764659345
-56272.85794729375,-3349.017305450979
-56464.945443952594,-3543.8506578481943
-56605.914401344766,-3685.263763871446
-56676.89928418994,-3757.7473180563684
-56671.475094916175,-3756.767750723795
-56596.3156279279,-3688.7730584322608
-56469.23805762274,-3569.387730807151
-56315.07882451735,-3420.159573197938
-56160.43637670876,-3264.5467606990796
-56028.608059048434,-3124.0004461895646
-55935.94379706246,-3014.9506451244724
-55890.37311145956,-2947.2460112762556
-55892.18756953093,-2924.1997117087612
-55936.49923173748,-2943.966859093522
-56016.35609924727,-3001.6479562265786
-56125.40855942256,-3091.374392763378
-56259.29654614044,-3207.72494573936
-56415.45495385738,-3346.1139560867846
-56591.62861077515,-3502.1877901422818
-56783.84882606441,-3670.638674792804
-56984.805221306,-3844.0731351921318
-57183.40339798371,-4012.5801812717805
-57365.88931089236,-4164.425612526205
-57518.3879794649,-4287.919074182696
-57630.21698912962,-4374.077902146423
-57697.04584485086,-4419.380466127314
-57722.95776672017,-4427.7703003987535
-57720.72783614782,-4411.190188467958
-57710.07851570738,-4388.267109729381
-57714.18201088194,-4381.241650232223
-57755.11307727184,-4411.706543781531
-57849.21121828016,-4496.055735132725
-58003.33440446623,-4641.65395412296
-58212.787375516586,-4844.589073852319
-58461.343208038445,-5089.509435113839
-58723.340889078965,-5351.576835636075
-58967.43127354579,-5600.109623193571
-59161.24655355309,-5803.16394066502
-59276.13693958469,-5932.175232744348
-59291.16977213153,-5965.866167462398
-59195.79355747501,-5892.872203418644
-58990.874850842825,-5712.854991275369
-58688.14022121696,-5436.171794406721
-58308.3236589046,-5082.373959817813
-57878.475835649726,-4677.889857361279
-57428.9140143863,-4253.225146391319
-56990.20322711064,-3839.937273763076
-56590.41256704339,-3467.5731397027557
-56252.75493412992,-3160.743666033361
-55993.64962087968,-2936.5558817436186
-55821.266976791136,-2802.701741808906
-55734.69995386502,-2756.555351734073
-55723.99679064608,-2785.5955567492133
-55771.30503903804,-2869.312436649215
-55853.26396519913,-2982.482589874803
-55944.52758767642,-3099.36764702925
-56021.96241381157,-3198.097935823699
-56068.747670007215,-3264.350524519477
-56077.44127142154,-3293.4918044298715
-56051.1616246574,-3290.6455622684125
-56002.4017781035,-3268.613956393669
-55949.572687440144,-3244.1060269991476
-55912.00871289583,-3233.1714159413714
-55904.66804698949,-3246.964010770832
-55933.94397334228,-3288.894544358489
-55995.777559413946,-3353.878315276786
-56076.66431020621,-3429.8345146747897
-56157.335172927575,-3500.9983367711056
-56218.10828899228,-3552.1340953028553
-56244.39986701182,-3572.5211228001967
-56230.82050810989,-3558.683378120296
-56182.70041862071,-3515.2139864919277
-56114.65812997455,-3453.5900508357695
-56046.712686395374,-3389.417468591619
-55999.15476271954,-3338.9315835590905
-55987.7100638343,-3315.702831586891
-56020.35233355664,-3328.337986994633
-56096.5242734669,-3379.5966219671473
-56208.71424868311,-3466.891278656727
-56345.59615582199,-3583.758082242157
-56495.5191397971,-3721.688371988784
-56649.165190045474,-3871.746669189528
-56800.64072282255,-4025.6276434196907
-56946.95119875437,-4176.119647645379
-57086.45599470216,-4317.2132608103775
-57217.26653299218,-4444.211240028961
-57336.49422256596,-4554.116167493473
-57440.80198844038,-4646.330169308334
-57528.04887395734,-4723.402907005251
-57599.21317005957,-4791.345770199348
-57659.49487505527,-4859.00686096579
-57717.679075700726,-4936.220118344152
-57783.454129416416,-5030.857602231368
-57863.21817110011,-5145.396853865606
-57955.663209046186,-5273.990523634638
-58048.79299529345,-5401.132065331475
-58119.825907932136,-5502.76132407552
-58138.66694186282,-5550.071656713442
-58074.52139987792,-5515.506622678679
-57904.12156238794,-5379.691750723982
-57619.32363745561,-5137.574670507239
-57231.77623268189,-4802.025158096205
-56773.02669150926,-4403.633511567967
-56289.64727611186,-3986.3482555054998
-55834.376205092056,-3599.6848918982805
-55455.44220444105,-3289.2133523214666
-55186.81405956893,-3087.6012085707703
-55041.90221655588,-3008.460565475238
-55012.29355292991,-3044.59039354694
-55071.70248947681,-3171.076141243681
-55183.884951534994,-3352.40481031248
-55312.204529253904,-3551.6424872255006
-55428.16136210506,-3739.1307183491494
-55516.587563058354,-3898.279899564448
-55576.24513646834,-4026.8646274916005
-55615.92633898425,-4133.543778945784
-55647.459891720544,-4230.769371243605
-55677.90989101488,-4326.3923279086885
-55703.48515636983,-4416.767273379455
-55707.20341632928,-4483.824292254844
-55661.309815400935,-4497.470820237947
-55534.10931629258,-4423.099765786051
-55299.58143351509,-4232.3566739185735
-54947.23665769687,-3914.1403172057953
-54489.38905810032,-3482.4542774850106
-53963.46121138089,-2978.3483342980517
-53428.036416332805,-2464.6666081476747
-52952.9022251182,-2014.2765297725678
-52604.93552127508,-1694.351380035803
-52432.960846865295,-1550.570972507245
-52455.30673160454,-1595.3895708699163
-52653.46201742262,-1803.6677316234072
-52973.98357657281,-2117.1657283557406
-53338.86527992867,-2457.1182016882813
-53662.40067081242,-2741.9723141615827
-53870.73525908711,-2905.972196564742
-53919.35050207555,-2914.012304979147
-53803.9967109404,-2769.146427703319
-53562.1150304151,-2511.0655592374073
-53264.21075059601,-2206.209406485777
-52997.31574662719,-1932.294704025062
-52844.83534378597,-1761.3421286326432
-52868.05548676745,-1745.420063540056
-53094.056168429,-1908.2997970296478
-53512.85747850074,-2244.375189667542
-54083.88301838578,-2724.1148215429703
-54749.10790695976,-3303.613727480858
-55448.42431917565,-3934.9816325203533
-56132.39534333564,-4574.542535879673
-56768.78534964728,-5186.979800167963
-57341.63060233236,-5745.206324753394
-57844.3253023483,-6227.29538113162
-58270.30039419941,-6612.750747106802
-58605.62338151272,-6880.426521147267
-58826.97797820093,-7009.550812470338
-58906.29832629648,-6983.896353397489
-58820.62518260989,-6797.700413626205
-58563.51498591461,-6461.001285705386
-58153.41708585785,-6001.9869448582895
-57635.22521707498,-5464.796967833878
-57073.47800308672,-4902.707935786545
-56538.65081338966,-4368.254869683959
-56090.583306452754,-3903.0232923618755
-55764.36210796785,-3530.1509981024483
-55563.401441732814,-3251.86050922354
-55462.17988650134,-3052.8080576685647
-55417.851629821125,-2908.1773954938235
-55386.87989020423,-2793.8879683686487
-55341.03495142946,-2695.5647095743866
-55277.23261964908,-2613.298979265285
-55217.76355739095,-2560.6170654110847
-55200.78799452806,-2558.021336045143
-55264.403779434746,-2623.3361029015755
-55429.93150717024,-2762.244723314947
-55690.45771114171,-2962.4415236422337
-56008.96708086043,-3193.7036010422653
-56327.1398019649,-3414.2616903893186
-56582.20193546585,-3581.740788273009
-56726.36827901642,-3665.34701548883
-56742.40126227164,-3655.4352159003306
-56649.99123665275,-3567.3002120833694
-56500.652749424175,-3437.7824194590758
-56362.61561560867,-3315.511318934131
-56300.48898929562,-3247.6106301778796
-56356.1763789025,-3266.811236911401
-56537.063064237125,-3382.7998870648635
-56815.05903347508,-3580.3132383535076
-57136.505424841416,-3824.3954916265034
-57439.45342510657,-4071.047311285607
-57672.56508148998,-4279.9021491737985
-57809.58519798151,-4425.068359116336
-57855.034786708886,-4501.004566558278
-57839.84384741692,-4521.98488034881
-57809.00360071348,-4515.787455472672
-57805.83398660061,-4514.02030533512
-57858.31885961416,-4542.412904837564
-57971.935759264205,-4614.182164224217
-58130.92317119955,-4728.340786617371
-58306.89161880744,-4873.005674816794
-58471.15796546998,-5032.014354802555
-58606.017139479714,-5192.06399119925
-58710.72139423347,-5347.51207118437
-58799.97137888431,-5500.929658843931
-58895.49791924141,-5659.135815187176
-59013.853181468745,-5826.19156301651
-59154.96388642402,-5996.082478251857
-59295.85241916573,-6148.127684491757
-59392.26422797664,-6247.3931551180995
-59388.32464894394,-6250.790896962121
-59231.65663949825,-6117.627285667244
-58889.50452434902,-5821.751796862313
-58360.930960262536,-5361.688784542553
-57681.22407826178,-4765.48170990161
-56916.91363692058,-4088.3604498193995
-56152.53173602394,-3403.3503774846054
-55472.62291018894,-2786.9719094822126
-54943.80840857865,-2303.61903423761
-54601.591238860565,-1992.624972434039
-54445.14181796279,-1861.3038432239146
-54441.01028905156,-1885.6217093354544
-54534.26975266135,-2018.087328312502
-54663.71413128162,-2200.562737890408
-54776.90609241912,-2378.5057716442275
-54841.25489679408,-2512.974922379177
-54848.69794196924,-2587.551234417998
-54813.48988245372,-2608.872937248035
-54764.48381189218,-2601.2597656390917
-54734.60131016788,-2597.4126892119307
-54750.62455033755,-2628.014616581925
-54825.97529096329,-2713.0551776276857
-54958.00499399482,-2856.9399471454126
-55129.90485895584,-3048.2122183234687
-55316.08758441569,-3263.4080416293186
-55489.12774290927,-3473.5541697183094
-55626.22803684423,-3651.3451887010715
-55713.64580011559,-3777.1554070499556
-55748.344361954056,-3842.6284634906374
-55737.02331024465,-3851.400767468673
-55693.35113760748,-3817.2847024471644
-55634.50351935953,-3760.7559554122286
-55577.98392885206,-3704.765614588837
-55539.291601133606,-3670.7678314520267
-55530.51430788687,-3675.5456567562387
-55559.56134928896,-3729.088334466403
-55629.650895873485,-3833.545156314895
-55738.83269995407,-3983.198846296091
-55879.65243622515,-4165.426338396373
-56039.36565239394,-4362.652927263859
-56201.20920702044,-4555.2596152090855
-56347.03597266864,-4725.223307870597
-56461.14397111096,-4859.98389934139
-56534.53861222964,-4955.744876895682
-56568.393114490544,-5019.266653601921
-56575.34465871297,-5067.326949464314
-56577.615794981626,-5123.44715257735
-56601.75158561966,-5212.155857508821
-56670.81431081929,-5351.814482754605
-56795.8569388532,-5547.63806053502
-56969.06284318022,-5786.789641155807
-57160.84446996098,-6037.176023044169
-57322.38133062568,-6250.829876057354
-57393.71652391079,-6371.683142265784
-57315.98255523083,-6346.389022350957
-57045.042914113495,-6135.9476961866
-56563.21555293716,-5725.49925550739
-55886.01520076678,-5129.903360564651
-55061.97605753027,-4393.593357036106
-54165.30933324296,-3584.469525867258
-53282.94620333901,-2782.9639737991934
-52498.9185464962,-2068.523061821315
-51879.64866885568,-1506.3336943724112
-51463.40036990411,-1137.0299439090986
-51256.00565297433,-971.3936970682399
-51233.35895000491,-990.9035110076192
-51349.53730541835,-1153.6863871125395
-51548.19339606579,-1404.3025154091756
-51774.36512946662,-1685.0942250951377
-51984.11240116279,-1946.6859206143235
-52150.265293610224,-2155.6164668010924
-52263.73480736484,-2297.87866742157
-52330.94167573509,-2378.1146377114533
-52368.68015422731,-2415.1384599894113
-52398.01637629562,-2435.137666847784
-52438.65710331543,-2464.23093085803
-52504.7692020585,-2522.0095357781615
-52602.68948466179,-2617.3221682968638
-52730.51041024427,-2746.985681940927
-52879.24739190158,-2897.449197031465
-53035.1785403724,-3048.8305153234014
-53182.9214913968,-3180.2852583982326
-53308.7917975207,-3275.4320706098333
-53403.92964716102,-3326.57806909443
-53466.61308881987,-3336.765626494172
-53503.17843812752,-3319.1512913360434
-53527.12921438275,-3293.8445222575915
-53556.37646948946,-3282.9556431927203
-53609.06582584768,-3305.087072367308
-53698.96644943428,-3370.716878289791
-53831.72941545667,-3479.78230437896
-54003.29015862844,-3622.2658387612228
-54201.216023795176,-3781.808402789653
-54408.958192384205,-3941.5045018285373
-54611.98306405536,-4090.3072576416953
-54803.95139322223,-4228.114049878448
-54990.79221236532,-4367.766155512956
-55190.87188121321,-4532.8952763514635
-55430.46849213371,-4751.646834384015
-55735.18452929973,-5047.530826997873
-56119.35344429808,-5429.654433957634
-56576.45575626374,-5885.062028938311
-57073.69630785295,-6375.657069179798
-57553.071221459344,-6841.208068947613
-57939.62877069048,-7208.457774710021
-58155.627910292,-7404.734692393502
-58137.49332548092,-7373.149467147956
-57851.41018608189,-7085.8280906069585
-57303.45541335682,-6551.900964668114
-56541.370395960505,-5818.102246557991
-55647.14650019307,-4961.565920890378
-54721.95761382752,-4076.2885030139396
-53866.96942460348,-3256.2660968996065
-53164.61840885834,-2579.096169749991
-52664.772593702815,-2093.6561808619867
-52378.8273529608,-1814.3888054379509
-52282.644751597785,-1723.039024782569
-52326.9358250771,-1776.8617923174131
-52451.86534710808,-1920.8362294850076
-52601.81964281557,-2100.6581213529093
-52736.60861616536,-2273.398795422771
-52836.71153602992,-2413.627195161033
-52902.06918888392,-2514.1915175094405
-52945.78507341199,-2582.3289957423854
-52985.380250661445,-2632.9087175987784
-53034.61670352536,-2681.1304790243116
-53098.33225555948,-2736.8192417090527
-53171.47528370301,-2801.6946497039207
-53242.043956408095,-2869.938043155325
-53296.4091771341,-2931.3644012556524
-53324.899039780255,-2975.8255069826323
-53325.67743707116,-2997.28489788702
-53305.73655944024,-2996.309864058305
-53278.91865908125,-2980.3678320218423
-53261.89183440405,-2962.0557681292544
-53269.592543124425,-2955.992153118246
-53311.65834301105,-2975.3963837946826
-53390.85921949362,-3029.3232658721063
-53503.73115548586,-3121.1827015967265
-53642.8353571241,-3248.7089974309115
-53799.59093785195,-3405.12120193109
-53966.60081578586,-3580.963814924162
-54138.77576213495,-3766.0826689188884
-54313.16886506535,-3951.3332591094013
-54488.0014501346,-4129.838125162022
-54661.65689339143,-4297.793709428533
-54832.33181926485,-4454.898911800369
-54998.61300720195,-4604.426594378719
-55160.68324845149,-4752.841465339438
-55321.40115447699,-4908.777913831826
-55486.36375879165,-5081.218484093309
-55662.33840502014,-5276.89736660953
-55854.066985447,-5497.259122053754
-56060.18467514589,-5735.627535574121
-56269.57401221265,-5975.445319139469
-56459.64511266256,-6190.4123256173025
-56597.67883858072,-6347.02645674003
-56645.5568928963,-6409.464475128666
-56567.16505179043,-6346.07140537423
-56336.82197667656,-6136.155769717347
-55946.57284100911,-5775.506905918255
-55410.29195205955,-5279.182546990433
-54763.264172954594,-4680.66451333209
-54057.07494480012,-4027.3238675833627
-53350.89147066558,-3373.0519420503647
-52701.196173429584,-2769.6433669410353
-52152.4457537019,-2258.8477772147717
-51730.8473295791,-1866.8345862919011
-51442.5585160826,-1602.1812410768368
-51276.39445006866,-1457.5761561277664
-51209.92657121424,-1414.4832695812818
-51217.03014324744,-1449.3120127839356
-51274.70796310366,-1539.3666013983852
-51367.42589093309,-1667.0730859616738
-51488.0868583021,-1821.6152869710656
-51635.85465653795,-1997.9470208415107
-51811.97854823935,-2193.9300695515767
-52015.28893237595,-2406.8442258032724
-52238.99863738067,-2630.593366610143
-52469.897248106994,-2854.59061580225
-52690.16705176805,-3064.67661950239
-52881.16620721789,-3245.7220320032384
-53027.89912704355,-3385.0158681495523
-53122.71090937096,-3475.313292099148
-53167.04263327805,-3516.566791949617
-53170.74662380287,-3515.825860147843
-53149.25658235859,-3485.3965053814095
-53119.57247334243,-3439.897031253204
-53096.34247992868,-3393.1531580249816
-53089.21100198999,-3355.8528161154513
-53102.10766783996,-3334.5519082318688
-53134.45615388332,-3332.113133554352
-53183.62625291971,-3349.1544672090054
-53247.5606345892,-3385.759836562884
-53326.51072507252,-3442.6725759499986
-53423.20584042951,-3521.4582693370357
-53541.41586204119,-3623.58697978458
-53683.52247690338,-3748.873149131278
-53848.1503165996,-3894.0399283760407
-54028.96078732885,-4052.211081519916
-54215.34362799845,-4213.846020810732
-54395.06387900203,-4369.105449024368
-54558.15967441003,-4511.041452158655
-54700.80251330236,-4638.557435384199
-54827.648575981664,-4757.956555697927
-54951.5223047839,-4882.172910618079
-55090.02053756291,-5027.409468806163
-55259.598423301686,-5207.720955940665
-55468.60029530138,-5428.834587658765
-55711.23668507191,-5682.951168815935
-55964.48699170252,-5946.2436528026565
-56189.28846820919,-6180.2323495523315
-56336.30076304542,-6337.279642657868
-56355.29366075317,-6369.3516129930285
-56206.14220378386,-6238.23909944206
-55868.83688002657,-5924.891710070148
-55350.00297300565,-5435.565617569109
-54684.173307410805,-4803.133441863884
-53929.28552128207,-4083.001354822503
-53157.259451322745,-3344.3482473757776
-52441.69248153991,-2658.517045090629
-51845.38289259272,-2087.060395785388
-51410.38664769411,-1672.0007259264146
-51152.6486878596,-1430.299883508923
-51062.10654949344,-1353.5012563341977
-51107.85398857076,-1412.2807954296911
-51246.81005677818,-1564.5383750649726
-51433.64465767685,-1764.9494864099674
-51629.61578850069,-1973.7370699250878
-51808.46213761762,-2162.820614916948
-51958.40251585241,-2318.315293443444
-52080.35691960784,-2439.348502131915
-52183.4357432141,-2534.0654711236443
-52279.31078532226,-2614.284561083712
-52377.167739570126,-2690.413106204589
-52480.56312856649,-2767.949823251322
-52586.81461380348,-2846.2991774834063
-52688.75925841854,-2919.899151131452
-52778.04963041947,-2981.0231162217256
-52848.79400030864,-3023.221738910808
-52900.36000252327,-3044.300893975062
-52938.51023786727,-3047.9686792874013
-52974.59329647783,-3043.7301075697546
-53023.095793248576,-3045.118997266973
-53098.30196590974,-3066.7905948074153
-53210.99497413326,-3121.2525751521875
-53366.044641953136,-3216.0451572179836
-53561.41692969482,-3352.015362126151
-53788.728134439625,-3523.034739426736
-54035.081162355,-3717.1724291328833
-54285.66481901592,-3919.0364858020575
-54526.51550819354,-4112.789254709877
-54746.91435204442,-4285.247401814311
-54941.061545386445,-4428.486846895352
-55108.85254938332,-4541.4658412028575
-55255.71990881293,-4630.332817830763
-55391.58224572347,-4707.282150446832
-55528.98106300799,-4788.047909331916
-55680.53482438983,-4888.367582182957
-55855.93915540922,-5019.977491812949
-56058.89961914061,-5186.876954948121
-56284.55841233516,-5382.666844498585
-56518.08681969308,-5589.6828837730745
-56735.07610384106,-5780.382535793881
-56904.10797768251,-5921.027353227496
-56991.43587149216,-5977.200618957546
-56967.14492288671,-5920.224461070889
-56811.63837154209,-5733.218444960858
-56520.994977685375,-5415.479893365084
-56109.79265150428,-4984.116039015877
-55610.44231364475,-4472.391411981723
-55068.84566708756,-3924.961096389912
-54537.09694984597,-3390.873592791153
-54064.73735926157,-2915.762327447249
-53690.5082351799,-2534.8545825638157
-53436.485036631646,-2268.2435681829074
-53305.9002901234,-2119.3304438701325
-53285.02635047658,-2076.583387637557
-53348.44716345332,-2117.9782652219064
-53466.197879330095,-2216.8860116570836
-53610.83890366598,-2347.9108073085968
-53762.67037998865,-2491.320587256336
-53911.93272353825,-2635.1953471944908
-54057.77773210695,-2775.101261406291
-54204.74340016864,-2911.780741682804
-54358.13760777388,-3047.839234510448
-54519.94125080387,-3184.5816277944905
-54686.53832565737,-3319.976605111993
-54848.88990407922,-3448.2815730155144
-54994.92851859543,-3561.295462302458
-55113.234299923926,-3650.6998748169644
-55196.68653262551,-3710.649607477984
-55244.8636315312,-3739.7570024671068
-55264.44022203106,-3741.863744777921
-55267.523445039405,-3725.410000982246
-55268.540101294704,-3701.650341629726
-55280.71195772162,-3682.288612774805
-55313.21048994184,-3677.2183691265204
-55369.770432096855,-3692.945259066084
-55448.993580670576,-3731.9915468443946
-55545.99436108212,-3793.2494267319157
-55654.63034326358,-3872.976985789009
-55769.45784717493,-3966.0046008828867
-55886.770577921205,-4066.766138378655
-56004.5189771924,-4169.949100385608
-56121.39035029139,-4270.78438143603
-56235.66890761478,-4365.170924938425
-56344.56031589429,-4449.8806949766895
-56444.43502256561,-4522.996130731058
-56532.00947729296,-4584.537629494918
-56606.01622302194,-4637.029525171762
-56668.6001636986,-4685.628016729276
-56725.6570955412,-4737.465095780446
-56785.63051633201,-4800.063481483174
-56856.81800150238,-4878.997002693377
-56943.82638777101,-4975.304527744063
-57044.24705644231,-5083.391030630687
-57146.728837842486,-5190.168843998753
-57231.34237250366,-5275.968810003241
-57272.52057678422,-5317.326636340808
-57244.10365845153,-5291.2361492570235
-57125.34569218555,-5180.007957055099
-56906.37190551382,-4975.620510477888
-56591.63407794632,-4682.4881839674235
-56200.39180187013,-4317.9021463529125
-55764.01457065026,-3909.9417867087327
-55320.72646459496,-3493.261071411108
-54909.06242536621,-3103.659026875136
-54561.58864879003,-2772.6097411777255
-54300.28881082524,-2522.887999129349
-54134.49594909921,-2366.103503857943
-54061.52779773992,-2302.4507872817303
-54069.48118031894,-2322.4413393688906
-54141.1626581169,-2409.9580395339613
-54257.99744516728,-2545.7651861877343
-54402.9724209749,-2710.6537820950807
-54562.130287908905,-2887.6577740422244
-54724.6689699418,-3063.141528118987
-54882.13363760767,-3226.909228681193
-55027.38922190157,-3371.7191864235647
-55153.98940944265,-3492.6464072631256
-55256.26834586034,-3586.63409391231
-55330.10177609796,-3652.371479896698
-55373.96098702751,-3690.42110042722
-55389.733808257886,-3703.376244209804
-55382.85815530716,-3695.806287260202
-55361.569059650414,-3673.8413177116954
-55335.395925885794,-3644.4099442463958
-55313.33456220283,-3614.3030026415895
-55302.248467265774,-3589.3232412440125
-55305.97888833492,-3573.760163625912
-55325.39143164311,-3570.3080975342764
-55359.25231751273,-3580.3736536961487
-55405.53550112951,-3604.567288863773
-55462.62077385213,-3643.1076250539118
-55529.9089020975,-3695.918833810498
-55607.629691118935,-3762.35610205012
-55695.96164669361,-3840.6935466716864
-55793.888856177626,-3927.6711454298456
-55898.370732707626,-4018.4476894054833
-56004.32568910667,-4107.2078926750255
-56105.64240377222,-4188.441217871677
-56197.02397159261,-4258.61931270246
-56276.08470519265,-4317.752631038928
-56344.90189392802,-4370.2070048277155
-56410.27625875016,-4424.270132122459
-56482.28648435378,-4490.272204025524
-56571.25199964651,-4577.50784537681
-56683.785696186285,-4690.647835179571
-56819.03784302024,-4826.622723920251
-56966.350066386,-4972.991745396872
-57105.28529098377,-5108.536267447107
-57208.418931040906,-5206.2863156473495
-57246.51729860981,-5238.534503077067
-57195.00884997964,-5182.796276114969
-57040.18721617643,-5027.3175565934025
-56783.52853303382,-4774.731318273683
-56442.89809048026,-4442.84624980549
-56050.17308501786,-4062.2267064847847
-55645.71934317978,-3671.0182345542203
-55270.981379157,-3308.1713074377944
-54960.94074417042,-3006.6233224422294
-54738.22845855012,-2787.9997336539964
-54610.22944165021,-2659.987276287934
-54569.71519151017,-2616.8287131859083
-54598.61191414875,-2642.5856738862976
-54673.71573459157,-2716.1364980720264
-54772.72547024155,-2816.503736373309
-54878.99070956405,-2927.1339506750214
-54983.848532152304,-3038.1566384736066
-55086.191611388254,-3146.297927955231
-55189.74102207715,-3252.8203060062906
-55299.14111198024,-3360.398107454406
-55416.26798361631,-3470.0704796075656
-55537.979563808985,-3579.2871289366217
-55656.00107113252,-3681.63509457628
-55758.91293882451,-3768.2530493956283
-55835.52138614015,-3830.389701060446
-55878.45823789774,-3862.213113427581
-55886.80508559871,-3862.9272358955573
-55866.872384762064,-3837.502338632706
-55830.87030107489,-3795.785076949433
-55793.883564333504,-3750.267784532019
-55770.08973527092,-3713.2009537766826
-55769.3742370417,-3693.905146702021
-55795.33485699181,-3697.035341092152
-55845.19594559553,-3722.218310423637
-55911.53009039255,-3765.0397049305016
-55985.12016600579,-3818.950074989009
-56057.97119755745,-3877.4172267572617
-56125.49810865096,-3935.6446670797095
-56187.25566981402,-3991.3904807029994
-56246.11512131456,-4044.7722653501505
-56306.33701540709,-4097.304078104965
-56371.35403512284,-4150.655571983613
-56442.13636789499,-4205.6716175491265
-56516.7515375117,-4262.034184516412
-56591.24813772667,-4318.651472053121
-56661.46458307972,-4374.535844783078
-56724.98366488357,-4429.704532757179
-56782.36318022895,-4485.593378497761
-56837.01250547814,-4544.636547440395
-56893.57872623298,-4608.9820374319825
-56955.2821417184,-4678.674538090547
-57021.09773208186,-4749.913683049645
-57083.84514658001,-4814.081001915392
-57130.0526616449,-4858.078066939009
-57141.94847176567,-4866.164920490423
-57101.26351891917,-4823.034897380343
-56993.91917108992,-4717.449952800551
-56814.32346914271,-4545.5226427497855
-56568.03155321706,-4312.749407854354
-56271.93973849483,-4034.1792902516668
-55951.85553881805,-3732.5667895940833
-55638.011400316886,-3434.8741361435737
-55359.64714771461,-3167.907751575227
-55140.00920117257,-2954.077045409449
-54992.944319534254,-2808.197994872191
-54921.767566859446,-2735.9570299091156
-54920.423734143966,-2734.2004312244003
-54976.34509405513,-2792.756226501014
-55074.02133286299,-2897.159578999824
-55198.239999023295,-3031.52412335226
-55336.21748919121,-3180.8972500344357
-55478.31124060967,-3332.704234993636
-55617.51149190459,-3477.223608890634
-55748.286281574015,-3607.331081833727
-55865.48215264157,-3717.9135422420736
-55963.84499418136,-3805.3519478263656
-56038.390654696086,-3867.326030118569
-56085.46119679511,-3902.9754724001796
-56103.99621626081,-3913.2514302752606
-56096.43974392552,-3901.1847004957094
-56068.82451451964,-3871.8178375646917
-56029.87486296689,-3831.6823336461566
-55989.33210344125,-3787.890070492568
-55955.99663890471,-3747.072868455974
-55936.09209868238,-3714.478163123657
-55932.44871702653,-3693.4819341725693
-55944.715526833,-3685.62908755343
-55970.44895965315,-3691.1149842206496
-56006.62107832487,-3709.4573891392156
-56050.95569025508,-3740.0430120309607
-56102.58613692052,-3782.29743333177
-56161.80581523372,-3835.4019138138915
-56229.05249578308,-3897.70086836011
-56303.59360457631,-3966.12257529823
-56382.537736976585,-4035.995255955176
-56460.718674087686,-4101.542830513632
-56531.69612795265,-4157.10835024882
-56589.68899279561,-4198.852088526056
-56631.849207639214,-4226.411887293448
-56660.04820150627,-4243.898935691588
-56681.38563214404,-4259.695833547659
-56706.95584441055,-4284.822544816009
-56748.93779359372,-4330.0654300930355
-56816.65096046521,-4402.498299558289
-56912.65435370571,-4502.321042002124
-57030.1044531295,-4620.990172387899
-57152.35821746104,-4741.3747607797195
-57255.25179401235,-4840.18603389587
-57311.749053978354,-4892.3236395529775
-57297.950137567546,-4876.2253367527
-57198.98926736379,-4778.964528486426
-57013.2846735696,-4599.821826009961
-56753.967570809225,-4351.383081719307
-56447.02240552405,-4057.808457949303
-56126.52284530552,-3750.6181237822407
-55828.1067135127,-3462.9591904085983
-55582.28348897834,-3223.68590020525
-55409.17910701647,-3052.6018821253774
-55315.89959525655,-2957.8796305109095
-55296.96238857219,-2936.086734886614
-55337.41902265946,-2974.577811407161
-55417.613235835,-3055.441616948349
-55518.17306242268,-3159.8753947834407
-55623.90764793728,-3271.866426879717
-55725.72599380902,-3380.3713999095057
-55820.3614233068,-3479.689520798402
-55908.36007147199,-3568.2674912211414
-55991.26958580537,-3646.594644367592
-56069.112558667824,-3715.031938588904
-56139.02431369072,-3772.3332071041514
-56195.464918128215,-3815.3083390151673
-56231.84657561642,-3839.6570369586866
-56242.9379123847,-3841.605825653062
-56227.165814650936,-3819.7302029529887
-56187.996053547016,-3776.30550822616
-56133.89996919307,-3717.7014941234634
-56076.88492895864,-3653.649547567213
-56030.02098680394,-3595.5616225280755
-56004.689668145336,-3554.3563980185677
-56008.32894077964,-3538.3721065399013
-56043.25218075519,-3551.8912325702504
-56106.75946346056,-3594.601184062854
-56192.3648027438,-3662.040808859813
-56291.66330068404,-3746.8243806993105
-56396.245819351,-3840.267198556705
-56499.15409360266,-3933.998112276725
-56595.60611823967,-4021.2266138133095
-56683.00985877888,-4097.490121280145
-56760.51518638086,-4160.8767837707865
-56828.45103105426,-4211.8422902418515
-56887.93454585455,-4252.783247206339
-56940.76196559343,-4287.497060144092
-56989.47932044697,-4320.581847377648
-57037.38008986012,-4356.757734279771
-57088.15443232448,-4400.065485069313
-57145.03724928849,-4452.939227760919
-57209.529103522415,-4515.244848779166
-57280.00805777465,-4583.4847283453855
-57350.71327068155,-4650.440413764892
-57411.58790627138,-4705.512834718642
-57449.29524263937,-4735.906173574404
-57449.40813332863,-4728.603905018856
-57399.40904896931,-4672.8545046646495
-57291.841261213776,-4562.68927368091
-57126.82072398919,-4398.901787353965
-56913.20680146976,-4189.968562822202
-56668.02367789119,-3951.584540334787
-56414.14649877007,-3704.783174638743
-56176.70037991498,-3472.935731440946
-55978.94352020017,-3278.192998400329
-55838.528925657134,-3138.0734494147446
-55764.93225737641,-3062.877028005065
-55758.52923244876,-3054.4194238793652
-55811.39730902113,-3106.2860955942742
-55909.515345308886,-3205.4740297096937
-56035.7487316452,-3335.0042006928097
-56172.900862122224,-3476.9148930444403
-56306.19669884407,-3615.0191596375807
-56424.79476755871,-3736.9236365935058
-56522.22163836853,-3835.0213340992555
-56595.897458298175,-3906.4273864535794
-56646.10170651632,-3952.059873714241
-56674.78234831247,-3975.2261954580613
-56684.54678879842,-3980.131327643564
-56678.03228004022,-3970.6772442076444
-56657.69374624018,-3949.7961633289215
-56625.91854318755,-3919.392367531233
-56585.31064119125,-3880.800680258694
-56538.982814777046,-3835.541353608278
-56490.73563018385,-3786.0860775360065
-56445.057439218646,-3736.3577688693795
-56406.926814160994,-3691.7623076958307
-56381.42823982365,-3658.6752056967466
-56373.20912652076,-3643.452886861389
-56385.82638465912,-3651.1747206484224
-56421.06386078618,-3684.4165765119933
-56478.34765429566,-3742.384202467432
-56554.42625289849,-3820.6821147632413
-56643.48814231342,-3911.864848122928
-56737.83581651744,-4006.7352732884415
-56829.11369941764,-4096.158829646371
-56909.91804942923,-4173.0018728419
-56975.44774799778,-4233.723641701763
-57024.74847500776,-4279.185964677568
-57061.11455114749,-4314.397596275607
-57091.36952637521,-4347.154122944171
-57124.025899369146,-4385.814493932287
-57166.6587685119,-4436.700116816056
-57223.11736052833,-4501.743268859985
-57291.34269053923,-4577.001815342815
-57362.49228761408,-4652.48797868136
-57421.788761658056,-4713.4643038366385
-57451.071603368335,-4743.010404347035
-57432.559946973335,-4725.348306707888
-57352.96645250689,-4649.2151614054665
-57206.95635140978,-4510.543348638094
-56999.073618283095,-4313.8581937997105
-56743.63047738151,-4072.0934387594266
-56462.57339522115,-3804.8783884684703
-56181.84737411184,-3535.677409244708
-55927.134558423175,-3288.382200589675
-55719.94551737865,-3084.0228486700466
-55574.87027804043,-2938.1722970467094
-55498.42083062392,-2859.4098866396253
-55489.441859340295,-2848.949835050638
-55540.67598000508,-2901.302258684623
-55640.85793038087,-3005.6735339087086
-55776.72426507589,-3147.7542784491575
-55934.52829829751,-3311.5774401226718
-56100.94843028476,-3481.220311540772
-56263.54996812921,-3642.2273654840833
-56411.10627883765,-3782.708191927731
-56534.05976060235,-3894.099703302523
-56625.23420947154,-3971.5812396170586
-56680.68066919842,-4014.1194645626974
-56700.35747610012,-4024.1248273371893
-56688.29610508035,-4006.7398531164645
-56652.019490731866,-3968.848447426976
-56601.22005417094,-3917.9712972704688
-56545.978345599215,-3861.260902483377
-56494.99808836366,-3804.800579243819
-56454.36426836872,-3753.3338584711055
-56427.17228444325,-3710.4202712431006
-56414.07801111093,-3678.8715335539096
-56414.4885520104,-3661.2210353265064
-56427.87733549214,-3659.9635038106194
-56454.66313247701,-3677.387904636318
-56496.26737953262,-3714.994759850137
-56554.30275019189,-3772.684288217921
-56629.224415817895,-3848.0513794511376
-56719.04622123394,-3936.1620990224424
-56818.771620713975,-4030.0817876249016
-56920.97365682852,-4122.193545211525
-57017.53944554202,-4206.053716699727
-57102.1140908322,-4278.274975086842
-57172.41453308317,-4339.805241508239
-57231.487140802,-4396.045748717544
-57287.21926287923,-4455.528128639013
-57349.937262425,-4527.284961031702
-57428.5760711939,-4617.4838687397705
-57526.47344872939,-4726.215073043476
-57638.123166607365,-4845.412101055884
-57748.092347443206,-4958.692117647262
-57832.77611667166,-5043.456079251768
-57864.86704018614,-5074.999051589575
-57819.591766999925,-5031.808048795311
-57681.16841081058,-4900.834191895469
-57447.76185418542,-4681.439036521112
-57133.53166890973,-4386.970618352729
-56767.09940067768,-4043.4658893840765
-56386.70199611625,-3685.6636818127895
-56033.17223629164,-3351.1640897070542
-55742.44333004383,-3074.013019109639
-55539.35875977424,-2879.109490687354
-55434.16354036357,-2778.6028488040843
-55422.29625411143,-2770.937283023392
-55487.22115184111,-2842.5548479917043
-55605.29477075883,-2971.6587285346736
-55751.25381941125,-3133.020024452848
-55902.93064293634,-3302.6773093405104
-56044.20415857055,-3461.539449035563
-56165.82259874695,-3597.2897231149586
-56264.379872108366,-3704.479946011119
-56340.1943538214,-3783.1583082314796
-56395.0106885249,-3836.679624581944
-56430.30685877386,-3869.440506784971
-56446.62850774361,-3885.167804728798
-56443.93757846623,-3886.125230572359
-56422.60567469939,-3873.2814358371124
-56384.5109520963,-3847.1968985555013
-56333.74010741808,-3809.2075954351944
-56276.60630632147,-3762.442673563509
-56220.9699700384,-3712.3023849935294
-56175.08479807005,-3666.2011759452107
-56146.30992258331,-3632.593530347247
-56140.01043155066,-3619.492854429104
-56158.84942734603,-3632.8258620787246
-56202.52398754464,-3675.015118882647
-56267.88523498674,-3744.1474539972724
-56349.34755462119,-3833.976706054294
-56439.52744886179,-3934.845921714259
-56530.1122388364,-4035.4231021043142
-56612.9834497966,-4124.9571728345345
-56681.56634695319,-4195.611919681212
-56732.24685780711,-4244.36040078861
-56765.5388969096,-4273.949776827604
-56786.57976513216,-4292.590042631311
-56804.55922965169,-4312.268656871843
-56830.888699644245,-4345.906037812244
-56876.26490836403,-4403.877690299808
-56947.18460994945,-4490.657398014794
-57042.78611940285,-4602.409623555906
-57152.99768142569,-4726.235094275429
-57258.78261891781,-4841.45639791622
-57334.79930023611,-4922.879044399228
-57354.15081681021,-4945.480958867563
-57294.26631523225,-4889.592798820069
-57142.53220313916,-4745.442611403846
-56900.2266275593,-4516.015096243635
-56583.65292247049,-4217.514452302826
-56222.04135939198,-3877.245857438459
-55852.61112145076,-3529.3157986055935
-55513.919841947456,-3209.047643301871
-55239.06506111786,-2947.288919148278
-55050.30730834774,-2765.7804442048573
-54956.2662913066,-2674.4711293216633
-54952.12658423702,-2671.1769199737637
-55022.49390804455,-2743.4298181479385
-55145.9016364228,-2871.8879442565403
-55299.65663736651,-3034.3968630215727
-55463.80123602253,-3209.763113788373
-55623.39567434353,-3380.5078483004527
-55768.93176790509,-3534.2328862265304
-55895.27044849975,-3663.637922867268
-55999.87267074871,-3765.5600789897153
-56081.16699888267,-3839.582647197889
-56137.67734504765,-3886.7503502176746
-56168.1284875506,-3908.7628023796165
-56172.31482924079,-3907.7681864541155
-56152.2147098019,-3886.633958315744
-56112.7548857754,-3849.406771059944
-56061.78635353001,-3801.6313030791684
-56009.14759911448,-3750.275314622675
-55965.03804863957,-3703.1663857306644
-55938.17401116656,-3668.0242087171146
-55934.26763504708,-3651.311978002118
-55955.24470850096,-3657.192049863614
-55999.35849228653,-3686.844820556611
-56062.068292890806,-3738.31406648732
-56137.339118781776,-3806.9129721213912
-56218.95124660254,-3886.102065421703
-56301.493565101686,-3968.662663892569
-56380.89933198714,-4047.9495390741085
-56454.58184337735,-4119.010183777094
-56521.35415366253,-4179.391377198057
-56581.32468642516,-4229.50198946454
-56635.85718971353,-4272.455700621224
-56687.52789035089,-4313.378280601488
-56739.88988497158,-4358.23559392495
-56796.836761028295,-4412.322313675623
-56861.473518234365,-4478.639906569289
-56934.621579462655,-4556.466349364408
-57013.32347943067,-4640.451653820489
-57089.86945924139,-4720.536274867884
-57151.85734307495,-4782.870672288071
-57183.59027121478,-4811.723259435677
-57168.756369253,-4792.135901403237
-57093.92469732259,-4712.8757149627945
-56952.06747110493,-4569.099154265436
-56745.1965593142,-4364.136268224696
-56485.341908159695,-4109.937318332433
-56193.47653653016,-3825.9803836293763
-55896.5078399734,-3536.761378046487
-55622.95555315886,-3268.2994229343767
-55398.27735681742,-3044.3123007343324
-55240.8831372103,-2882.791654199757
-55159.67680098763,-2793.6163432412327
-55153.54815448348,-2777.608920529519
-55212.73474479309,-2827.124885846214
-55321.53319745987,-2927.9466246066654
-55461.58327816668,-3062.0099382301296
-55614.93120355896,-3210.3734623258633
-55766.27947669529,-3355.866476956132
-55904.161562723,-3484.997311312588
-56021.122601395895,-3588.922812307816
-56113.232832318274,-3663.507031482221
-56179.3476548276,-3708.6780938527118
-56220.45578606506,-3727.3900464802477
-56239.280512377125,-3724.502252965666
-56240.1030736578,-3705.8187816613427
-56228.64148741424,-3677.4171115645595
-56211.7886565359,-3645.2771308800416
-56197.08815548012,-3615.129507217796
-56191.96066857086,-3592.3955425752015
-56202.823295587885,-3582.091952394582
-56234.31114998313,-3588.6144954838733
-56288.78927002237,-3615.3775932186927
-56366.24651649407,-3664.35470508803
-56464.5378803012,-3735.620084166996
-56579.84316523055,-3827.024530152955
-56707.180599932704,-3934.138397688877
-56840.86109910608,-4050.5615914145988
-56974.86562598708,-4168.634966655508
-57103.22057928881,-4280.499054873946
-57220.48225973648,-4379.349897850605
-57322.39222658309,-4460.65966510611
-57406.64301213896,-4523.085970956605
-57473.548708196846,-4568.809317613986
-57526.318119493226,-4603.123001080975
-57570.64188094714,-4633.247237820372
-57613.453800764415,-4666.522934876364
-57660.98149182126,-4708.318247462116
-57716.485551632,-4760.1041726485455
-57778.29629856599,-4818.182143858195
-57838.802217484124,-4873.455588842119
-57884.880786687645,-4912.437047076367
-57899.91534602783,-4919.412098754981
-57867.10178066642,-4879.403558545524
-57773.34793083007,-4781.364195556093
-57612.83458574599,-4620.932174598191
-57389.3244894374,-4402.14049512248
-57116.58117524688,-4137.671913483361
-56816.721147805634,-3847.549138889523
-56516.83800714502,-3556.4760174709977
-56244.65698942669,-3290.321849143299
-56024.18673049036,-3072.40466113338
-55872.2786500041,-2920.246943451007
-55796.71725421962,-2843.3530375725063
-55796.043599518525,-2842.328925374917
-55860.89322992812,-2909.391914037344
-55976.32730620684,-3030.0632703087717
-56124.522177817744,-3185.652610451537
-56287.25986112525,-3356.0568089056737
-56447.87032391384,-3522.4097937874985
-56592.52148750807,-3669.2122964367763
-56710.9440820509,-3785.7095334547234
-56796.76134571053,-3866.4355847566358
-56847.56481851765,-3910.978514798403
-56864.78303953803,-3923.123495778064
-56853.29628181338,-3909.595802210356
-56820.71857993551,-3878.651473548034
-56776.32233003971,-3838.753208644571
-56729.70113788149,-3797.5258596782655
-56689.39695880533,-3761.1143465308483
-56661.791088854414,-3733.975446508383
-56650.52781581835,-3719.0383478134827
-56656.59971735605,-3718.087430981548
-56679.01775863583,-3732.176483431321
-56715.793704775,-3761.893102474041
-56764.85718883117,-3807.3590311446305
-56824.56477028585,-3867.9623562463075
-56893.6306862056,-3941.939571407609
-56970.55978382228,-4026.0186274552057
-57052.89667869845,-4115.360598283261
-57136.72379580639,-4203.976999318082
-57216.78574344908,-4285.658998495894
-57287.39175187196,-4355.270013903899
-57343.92415037409,-4410.081945265023
-57384.477322276056,-4450.739355403396
-57410.98955732932,-4481.460880918587
-57429.29156359976,-4509.244721357944
-57447.7850408143,-4542.104876926988
-57474.90538990959,-4586.6594587158215
-57515.97394279372,-4645.635200948198
-57570.350500384426,-4715.963083364014
-57629.83713829551,-4788.070911624081
-57679.02039458349,-4846.731876564918
-57697.73167733881,-4873.458453996631
-57665.19939713233,-4850.033001617778
-57564.94441610044,-4762.447960106523
-57389.197630401024,-4604.379760104878
-57141.68613473031,-4379.386916564186
-56838.02979496064,-4101.29146372018
-56503.59901516383,-3792.6058726546457
-56169.330713859046,-3481.301406258425
-55866.49425986621,-3196.5691593331567
-55621.60849635034,-2964.4171850981948
-55452.59053158848,-2803.938444881962
-55366.821339966686,-2724.8915906827183
-55361.28088818698,-2726.922266604136
-55424.40073156576,-2800.403606384302
-55538.94601307655,-2928.575876237876
-55685.147076658766,-3090.4768043218455
-55843.44051598099,-3264.098367115453
-55996.465103154274,-3429.2675259263933
-56130.26789874175,-3569.886626877853
-56234.89827213453,-3675.3346344804377
-56304.64009252378,-3740.982279557197
-56338.06084375161,-3767.890415467203
-56337.90550627124,-3761.838796789542
-56310.72448520386,-3731.881975099795
-56266.07935497549,-3688.661485113562
-56215.2497489691,-3642.722813151772
-56169.54237373055,-3603.0848545321774
-56138.50174475008,-3576.275147716393
-56128.447778883245,-3565.965529538062
-56141.74618861199,-3573.222522642781
-56177.0382088076,-3597.2459814218964
-56230.36575039364,-3636.345587759978
-56296.82854142971,-3688.839970787235
-56372.21612509072,-3753.588712413209
-56454.053768839614,-3829.9885196022683
-56541.70568493032,-3917.453395135305
-56635.529350804914,-4014.5980087024327
-56735.44942019899,-4118.484518320586
-56839.57613008101,-4224.317676450609
-56943.52390784273,-4325.856690997438
-57040.85900658309,-4416.577534081878
-57124.68514614303,-4491.333830136728
-57189.90452770907,-4548.022595457334
-57235.34253617239,-4588.654506287735
-57264.84196871964,-4619.313680277446
-57286.67676068024,-4648.76758716788
-57311.15222986464,-4685.8880791263455
-57346.89395356085,-4736.455263993365
-57396.8693310684,-4800.206590640206
-57455.438171315065,-4869.058289923961
-57507.57729949611,-4927.219948530334
-57530.883070065865,-4953.479751983415
-57500.166653074026,-4925.366714139291
-57393.65462595018,-4824.352057063089
-57199.24019371136,-4640.891869097825
-56919.08802843075,-4378.049697580886
-56571.23945015627,-4052.7039056658177
-56187.6107371508,-3693.8821515265154
-55808.7151036545,-3338.4393359225114
-55476.29994192217,-3024.9315996503647
-55225.62875773109,-2786.9726158037843
-55079.20145631763,-2647.4796925718138
-55043.29510350002,-2615.0004264186664
-55107.94759954832,-2682.8189731713587
-55250.13165467486,-2830.9060067544087
-55439.12253576296,-3030.159673747034
-55642.64478849151,-3247.9333818058817
-55832.374874898254,-3453.655130153515
-55987.7354962506,-3623.4349457136464
-56097.49815088856,-3742.883056126016
-56159.3195115281,-3807.8215164497624
-56177.8006439216,-3823.0458060111564
-56161.86785851295,-3799.6725209409165
-56122.222555915374,-3751.8237476520417
-56069.36524376242,-3693.425089095297
-56012.38788899624,-3635.7547289922672
-55958.46492418439,-3586.129010246974
-55912.8306684813,-3547.8130367694253
-55879.01911097122,-3520.9671763638817
-55859.21583054425,-3504.232381178728
-55854.6602810442,-3496.450247631121
-55866.078890721794,-3498.019624080811
-55894.10522579398,-3511.5045387818777
-55939.578179240045,-3541.3063736247304
-56003.5608108639,-3592.4598324577387
-56086.94872431556,-3668.8581027110263
-56189.662163930894,-3771.401457400624
-56309.61247019028,-3896.642334137847
-56441.82445166788,-4036.4327190968424
-56578.18487536463,-4178.861877886295
-56708.19863866989,-4310.44009040557
-56820.8547562258,-4419.112511513114
-56907.29820033448,-4497.377369620438
-56963.606025515626,-4544.634855943928
-56992.733076121134,-4567.976318267543
-57004.75040590826,-4580.948637011027
-57014.88554627268,-4600.335803750477
-57039.51089911598,-4641.565459774247
-57090.93358772766,-4713.815136382216
-57172.38472924957,-4816.1135372813305
-57274.77909900844,-4935.614626837941
-57376.51050757974,-5048.764480615728
-57446.80281918755,-5125.380035448326
-57452.14237699783,-5134.891376299392
-57364.36364980912,-5053.37439061893
-57168.347082921406,-4869.701375669825
-56867.231412186215,-4589.264444078216
-56483.59546750863,-4234.265477186268
-56056.09221739765,-3840.3854750281844
-55632.23356365076,-3450.531412605799
-55259.07251758442,-3107.0731757497597
-54974.09718135235,-2844.3347903723493
-54798.57012658341,-2683.001478379343
-54734.83789089629,-2627.582381818518
-54768.02069098997,-2667.2790046678438
-54871.30627094407,-2779.772748254028
-55013.166485252215,-2936.7874876962333
-55164.44687576739,-3109.970612309608
-55303.52880493291,-3275.728077655505
-55418.51699962728,-3418.087452435409
-55506.39699048741,-3529.2950363713016
-55570.012583821335,-3608.4829388725143
-55614.25472150443,-3659.191646192565
-55642.88923300559,-3686.695234976665
-55657.0154349155,-3695.9391536419607
-55655.4277358324,-3690.545244641667
-55636.41821966176,-3672.9042311081284
-55600.06423023377,-3645.009490505734
-55549.94473603775,-3609.4951956110513
-55493.52750905941,-3570.3638700930483
-55441.02863934817,-3533.084854228756
-55403.144033561344,-3504.0237052156167
-55388.46742110047,-3489.4143373719
-55401.49648374304,-3494.225484161072
-55441.87521315726,-3521.267112913938
-55505.03940765131,-3570.7553049667395
-55583.917333657526,-3640.373217493889
-55670.98738885046,-3725.710803708796
-55759.93633732846,-3820.8959830178314
-55846.40542761556,-3919.260401042236
-55927.74732759984,-4013.9818409484365
-56002.16194734955,-4098.749365003658
-56067.84585841124,-4168.540840630628
-56122.76520711653,-4220.548530506838
-56165.3469873816,-4255.147601610487
-56195.90156023168,-4276.633023121647
-56218.13678753884,-4293.337525255871
-56239.8995504196,-4316.7649528709035
-56272.40440552115,-4359.565236417447
-56327.67503569486,-4432.511164532013
-56414.591344305205,-4541.021908441323
-56534.57292122604,-4682.08459395798
-56678.29617728438,-4842.528285829093
-56824.77244671072,-4999.42958567539
-56943.580356744445,-5122.983281101172
-57000.18039473296,-5181.552633147311
-56963.29541925979,-5147.9867820753
-56812.6152982253,-5005.8426706191885
-56544.81981789642,-4754.024514429968
-56176.22085786543,-4408.618254869768
-55741.13671102751,-4001.304394722728
-55286.20508951951,-3574.531317845057
-54861.90580518505,-3174.4126007169602
-54513.28650371364,-2842.8650023759947
-54272.06502454027,-2610.6786871279664
-54151.87211873046,-2492.962655861423
-54147.53168664641,-2487.8089022428417
-54238.21316410319,-2578.2363266805482
-54393.34030525972,-2736.7227165459894
-54579.56452954724,-2931.1053750227034
-54767.04239030049,-3130.4507142947264
-54933.67631987684,-3309.678618657079
-55066.71517719227,-3452.1939000119296
-55161.92143341285,-3550.368817423656
-55221.14300621607,-3604.261580478094
-55249.411893951816,-3619.303885963406
-55252.58246814911,-3603.776678126597
-55236.10590044008,-3566.73471154803
-55204.99010248958,-3516.7260494785232
-55164.519667681794,-3461.306870399748
-55121.06586406766,-3407.0909504530323
-55082.365406397046,-3359.967628848472
-55056.94327981996,-3325.1791689544234
-55052.76544294406,-3307.1172552077824
-55075.567407593735,-3308.894751148532
-55127.47667312953,-3331.889698665295
-55206.469963740485,-3375.4925932273427
-55306.91577536823,-3437.2121214508425
-55421.06363734834,-3513.1507872650054
-55541.00316442443,-3598.7171039838786
-55660.45654510539,-3689.3584323847163
-55775.8461709012,-3781.1115965586996
-55886.36258913875,-3870.8679178321045
-55993.13834042152,-3956.3880044551884
-56097.96219958378,-4036.2144315737364
-56202.119845645706,-4109.662264514725
-56305.85916883227,-4176.997511832668
-56408.683036988856,-4239.766725343086
-56510.28244941622,-4301.079929431033
-56611.59346869842,-4365.551382943454
-56715.33126551906,-4438.62923992904
-56825.49373774895,-4525.212866091619
-56945.704069009815,-4627.7257948933575
-57076.75397184828,-4744.095352004001
-57214.136046599095,-4866.278670987463
-57346.54537421881,-4979.978795490425
-57456.18670032312,-5065.976839809187
-57521.25596514432,-5103.103003217077
-57520.30067517381,-5072.38575263925
-57437.509166236094,-4961.499975541365
-57267.55375889887,-4768.4217104965255
-57018.57680384728,-4503.277646095402
-56712.30339656985,-4187.75543416982
-56380.995923152055,-3852.0272815998323
-56061.826868151154,-3529.775771206961
-55789.978142396525,-3252.4152784937105
-55592.154297418216,-3043.824715809176
-55482.09999682455,-2916.7774873736453
-55459.16217583373,-2871.8059538935845
-55510.09704066266,-2898.599119602686
-55613.443310022456,-2979.3890514671643
-55745.12948633073,-3093.318787708303
-55883.743198059565,-3220.629699476985
-56014.12600606034,-3345.6902976420524
-56128.57450631158,-3458.3373310830752
-56225.72125109539,-3553.560258345174
-56307.8776395549,-3630.0496624683637
-56378.02287971638,-3688.3975978284175
-56437.60210875754,-3729.711332870159
-56485.877674431664,-3755.110807325658
-56520.92199408032,-3766.142612816269
-56541.68209398472,-3765.7245498392776
-56550.11886393762,-3758.989148950536
-56552.37811066514,-3753.4118470718104
-56558.30288381194,-3757.8837953467482
-56579.22313998174,-3780.820443094317
-56624.63754865056,-3827.8254708846393
-56698.887860869785,-3899.692087713969
-56799.034982674384,-3991.5115044056774
-56914.8217749486,-4093.3579057604493
-57030.94444980061,-4192.5200991951715
-57131.07041771829,-4276.71754618046
-57202.403055510746,-4337.358824727022
-57239.33485490776,-4371.816565178819
-57244.95731794008,-4383.9524655996975
-57229.85662565499,-4382.661084328577
-57208.51224256642,-4378.845503137464
-57194.43864548414,-4381.779210425563
-57195.682861022855,-4396.057825352687
-57212.23407123438,-4420.201175635831
-57236.308897415096,-4447.456779773693
-57255.52268677671,-4468.629848583144
-57257.949468155166,-4476.052482814612
-57237.351027721146,-4467.343827304185
-57196.67948471551,-4447.571915609778
-57148.41774964845,-4428.847288607118
-57111.29975313242,-4427.151622969708
-57104.15122455607,-4457.105300078391
-57138.627714582006,-4526.126796566803
-57213.1519205424,-4629.787619530787
-57310.16843987215,-4749.9844108793895
-57397.964441988624,-4856.857888874542
-57436.99165192769,-4914.36634552334
-57389.259731949256,-4888.356752932644
-57228.374302447824,-4755.180457324721
-56947.47722662748,-4508.615805087232
-56562.82497721424,-4163.187598361792
-56111.883164784864,-3752.839286267759
-55646.29064260433,-3325.08895557975
-55221.42619287223,-2931.9643786668103
-54885.19669287777,-2619.846163633836
-54668.81751466284,-2420.6238223319665
-54581.744711281,-2346.2156965102345
-54611.75124048598,-2387.6232191586996
-54729.763811780496,-2518.5291614522657
-54897.89046515929,-2702.3259629691506
-55078.38781501167,-2900.672551062002
-55241.29350641964,-3081.4230294652007
-55369.03627110846,-3224.0917698549756
-55457.31588484954,-3321.8004828759945
-55512.60900542478,-3379.6565346579387
-55547.49982609781,-3410.4514387421036
-55575.4478890526,-3429.1905704426827
-55606.52229866868,-3448.119027004829
-55645.13545019124,-3473.583767425901
-55690.08905323024,-3505.394430276689
-55736.53006223749,-3538.533654465558
-55778.90664409353,-3566.36728001884
-55813.82753398772,-3584.1143661283268
-55841.881791763146,-3591.3538114105736
-55867.88557575186,-3592.740376147314
-55899.54897356142,-3596.738154633845
-55945.04302736092,-3612.847997831923
-56010.264232109526,-3648.298467076686
-56096.66657466016,-3705.3388845346344
-56200.3535511556,-3780.0721610782925
-56312.75078189859,-3863.2631476014185
-56422.71780376519,-3942.9160459608393
-56519.52909525076,-4007.83486914082
-56595.8771224607,-4051.047152305758
-56650.0048790779,-4071.9904954535245
-56686.28709924712,-4076.732636530791
-56714.004506908284,-4076.1078130443407
-56744.587725238125,-4082.3174936549553
-56788.0973935716,-4105.053808123445
-56850.004232512,-4148.393673479327
-56929.324662183695,-4209.509957097175
-57018.82444299632,-4279.701512396217
-57107.395747578594,-4347.513254221954
-57184.00642605833,-4403.021278126487
-57242.03056497522,-4441.91589933067
-57282.50239327224,-4467.978681566442
-57315.01576694191,-4492.952166620526
-57355.61314704398,-4533.544687087782
-57421.91789348907,-4606.190405175975
-57526.700584042585,-4720.938699307528
-57671.73276724004,-4876.243519746114
-57843.92895695469,-5056.323537560435
-58015.31226500416,-5232.168906433907
-58147.34919090884,-5366.326316678064
-58198.94937262772,-5420.554215079655
-58136.282647074775,-5364.595174561044
-57941.88573343968,-5183.9071120991275
-57620.55052097546,-4884.356649087481
-57200.23424022419,-4492.577466517354
-56727.51904666747,-4051.754708116183
-56258.61006308358,-3613.7327534973824
-55848.07261140223,-3229.2546282153353
-55538.113617083865,-2938.585699079321
-55351.03181353865,-2764.639881041304
-55286.55727888748,-2710.0596478610705
-55324.44326672588,-2758.6906996795883
-55431.2722577208,-2880.8141386684943
-55569.3975299295,-3040.6375462764877
-55705.54628588741,-3204.1152260682325
-55816.93885329718,-3345.254811491632
-55893.68603046609,-3449.616215131714
-55937.403701554285,-3514.5426488410512
-55957.05875523255,-3546.5404738396696
-55963.72115834444,-3556.908995771868
-55965.98335595453,-3557.0471545224336
-55967.35295301463,-3554.7758891523126
-55966.12434110387,-3552.5741578021057
-55957.3777915153,-3547.9849044517987
-55936.114440990525,-3535.7975500142693
-55900.29031798447,-3511.1336450039603
-55852.69099003179,-3472.368117873206
-55801.08209840018,-3422.9388394135785
-55756.681026159655,-3371.4742424754545
-55731.51301597327,-3330.1818471548645
-55735.49061667808,-3311.943701469905
-55774.04036181682,-3326.9262538330004
-55846.84844103581,-3379.646181782181
-55947.92929910666,-3467.316838459634
-56066.87130896012,-3579.971275511233
-56190.879004131,-3702.4045197548317
-56307.14423745804,-3817.5123902996625
-56405.11117008256,-3910.238427174227
-56478.29045010648,-3971.1619648440274
-56525.37147328458,-3998.81459640208
-56550.45474816982,-4000.0933722489267
-56562.299257307066,-3988.589556743227
-56572.59069271881,-3981.171987400312
-56593.415890431286,-3993.6309580213747
-56634.36312211198,-4036.4814189724375
-56699.89163936918,-4112.053907172236
-56787.72383149766,-4213.7361262502145
-56888.91273468022,-4327.708744435203
-56989.88371140774,-4436.859176072744
-57076.19343281612,-4525.921656081496
-57137.13781005637,-4586.458486477474
-57169.881470002256,-4620.208356041583
-57181.67151863844,-4639.645189814655
-57189.0521827246,-4665.268860637273
-57213.77661931124,-4720.033030658431
-57276.1304373311,-4822.175417014428
-57387.33165181973,-4978.304959580194
-57543.22951072257,-5178.725222803278
-57721.45153407314,-5396.555708398861
-57883.38935139084,-5591.323229064042
-57981.13251470228,-5716.545729132846
-57968.0057184234,-5729.7230910915505
-57810.1767957622,-5602.394920751056
-57496.2686380225,-5327.754902898681
-57042.23886489005,-4923.803712831652
-56489.93994130685,-4431.073320787266
-55899.436726748514,-3905.2991126024713
-55336.86549534178,-3406.695503822442
-54860.86127073329,-2988.3567539204096
-54510.990794359706,-2686.5170192368905
-54301.0657017368,-2514.9012546683684
-54218.84742784353,-2464.319526523552
-54231.88853189306,-2507.300691669488
-54297.60878465737,-2606.3014947678357
-54374.65612308658,-2723.20548456368
-54432.441283646986,-2827.6536546034495
-54456.47377454947,-2902.2469781224354
-54448.50767599613,-2943.6602886024675
-54422.0848723917,-2959.900722021992
-54395.35689135727,-2964.9827524861857
-54383.69884369764,-2972.8875609138695
-54394.44942202385,-2992.6828984065605
-54425.22495224616,-3026.1372620909992
-54465.98511841181,-3068.2672146759055
-54503.79542375946,-3110.301499804647
-54528.424245495335,-3143.8238580244283
-54536.75986573356,-3164.5735210777407
-54534.54443542184,-3174.5971862830534
-54534.89374813427,-3182.0610176731507
-54554.16496527713,-3198.830008349424
-54606.58994276973,-3236.644360463876
-54699.44744739872,-3303.146756239628
-54830.31497948817,-3399.0246157773636
-54987.22715072824,-3517.1475779803723
-55151.62558584473,-3643.9438985846095
-55303.13005143357,-3762.581392243197
-55424.65571564764,-3857.009282365313
-55506.38741998944,-3915.720504656264
-55547.56877421344,-3934.246228431423
-55555.79737770672,-3915.8216155621067
-55544.28437382387,-3870.2115517226644
-55528.08866007599,-3811.180865159686
-55520.5163998869,-3753.3932685345344
-55530.66250053249,-3709.5611772900616
-55562.57122882724,-3688.4687544012627
-55615.90598211522,-3694.1494091325126
-55687.55201520731,-3726.145157734678
-55773.380668415055,-3780.5223578891455
-55869.51859179206,-3851.2275561394927
-55972.814131888656,-3931.43209591152
-56080.61608623796,-4014.671409012953
-56190.29878802033,-4095.7454081687947
-56299.05417282568,-4171.433660000144
-56404.29306007016,-4241.060359239333
-56504.63403221578,-4306.842595067564
-56601.06659209173,-4373.838490065031
-56697.63055415241,-4449.26154594912
-56800.98341453729,-4541.003757412122
-56918.5539816745,-4655.42101049689
-57055.51022804014,-4794.726585212429
-57211.31789189689,-4954.611209302097
-57377.02341054916,-5122.846468742123
-57534.398105903616,-5279.546930814361
-57657.68231115036,-5399.444608184743
-57717.95584403201,-5456.027927528223
-57689.34164653055,-5426.846553545534
-57555.58174580141,-5298.847312215692
-57315.23754472302,-5072.432297964172
-56983.97927179213,-4763.099725180358
-56593.11095986302,-4400.026408656899
-56184.44428503327,-4021.664423644739
-55802.612900717104,-3669.169639379094
-55486.6212899766,-3379.0534085147005
-55262.64265977332,-3176.687394595641
-55139.75379555097,-3072.12039839486
-55109.51932255764,-3059.1221832893175
-55149.33949235591,-3117.59292857265
-55228.53989859602,-3218.6725297024223
-55315.56333017946,-3331.2627653783743
-55384.476814058704,-3428.3963114303747
-55419.33868665174,-3492.0128952659747
-55415.65513103152,-3515.1865192572805
-55378.97432429928,-3501.545767028347
-55321.38450045481,-3462.3467584446266
-55257.11366552856,-3412.204241273565
-55198.4894002349,-3364.726183468491
-55153.23501135163,-3329.187918595238
-55123.575243855805,-3308.978787978663
-55107.06710376944,-3301.990280545122
-55098.61968376055,-3302.558569170121
-55092.92749651684,-3304.180700149195
-55086.549496812666,-3302.090082283787
-55079.08001151587,-3294.9196576994086
-55073.19072935216,-3285.0358374875723
-55073.667331494056,-3277.5717429838096
-55085.829070369626,-3278.585479407614
-55113.84619839676,-3293.0032207070135
-55159.44631648927,-3323.019621031695
-55221.349328676864,-3367.431927731766
-55295.54623745865,-3422.0543405219473
-55376.29982705145,-3481.0072338850496
-55457.5569174133,-3538.41370401929
-55534.36541140653,-3589.941043503916
-55603.90659699525,-3633.7177288128987
-55665.87644464907,-3670.3967784431106
-55722.14681272442,-3702.4374403919387
-55775.85250508122,-3732.936020807367
-55830.22205918247,-3764.4675527425584
-55887.54304234223,-3798.3624018288856
-55948.60122077596,-3834.6533482186924
-56012.76271427101,-3872.658526458836
-56078.63620134731,-3911.9116091377045
-56145.02875270755,-3953.0058066781044
-56211.78217439725,-3997.938738467451
-56280.10013581395,-4049.7296930326143
-56352.15725767509,-4111.368785627786
-56430.06734197391,-4184.447836125532
-56514.57943586828,-4268.006655250461
-56604.05190252868,-4358.127083675462
-56694.23815647035,-4448.6014442524865
-56779.17845072385,-4532.64378981703
-56853.0897667909,-4605.21206671348
-56912.70938408988,-4665.203741749773
-56959.24206353306,-4716.695219201611
-56999.02254431746,-4768.5756060434205
-57042.29597640288,-4832.352460400897
-57100.08396953215,-4918.4714172728845
-57179.78519372378,-5032.027370120157
-57280.73268291449,-5169.078844010868
-57391.18115721319,-5314.7826644603465
-57487.99655737586,-5444.206563687171
-57539.67508933428,-5526.024950696466
-57512.38796243237,-5528.5237568664015
-57377.79958146605,-5426.649978196616
-57120.73751930564,-5208.444193598549
-56744.63695757162,-4879.220595819857
-56273.123112757945,-4462.324426125215
-55747.04133613448,-3996.092485448317
-55217.43451381169,-3527.5633532230204
-54736.0626498608,-3104.2850415605044
-54345.73393921945,-2766.0337173881117
-54072.76853810091,-2538.263794095271
-53923.32842404472,-2428.6595898817127
-53884.29447520754,-2427.3791939600956
-53928.16688203935,-2510.68650227285
-54020.46099750485,-2646.8964872338106
-54127.54769043244,-2803.1070604826873
-54222.97279414247,-2951.1568877090713
-54290.92001731979,-3071.610538427827
-54326.43070407872,-3155.201194380315
-54332.95160301459,-3201.863466338303
-54318.45805827387,-3218.0669597319397
-54291.61230651799,-3213.4702873498245
-54259.145916595415,-3197.90114832139
-54225.03766913095,-3179.375477653726
-54191.33364549066,-3163.4186269785005
-54159.877489274375,-3153.4982062816766
-54133.97087963518,-3152.0590029167797
-54119.12084101629,-3161.5457987948766
-54122.47110830189,-3184.9146736622333
-54151.07575308532,-3225.4030262432293
-54209.64379781284,-3285.6469182127103
-54298.59734387307,-3366.491550656356
-54413.18031949946,-3465.958249447049
-54543.98399694803,-3578.7836843778077
-54678.76627497662,-3696.763760945151
-54805.01384207621,-3809.884893848422
-54912.476816979375,-3907.9916676541834
-54994.95967185846,-3982.5906979370793
-55050.9410699444,-4028.361105275264
-55083.00009395829,-4044.02846448163
-55096.39681041751,-4032.425438222257
-55097.36311189147,-3999.756509449328
-55091.650446306376,-3954.2560053861757
-55083.68296636615,-3904.5428240338574
-55076.37688716911,-3858.017329867273
-55071.431595632544,-3819.61919464453
-55069.77405651156,-3791.183767300088
-55071.87915472119,-3771.5165382365735
-55077.85550667064,-3757.167456585678
-55087.38505598483,-3743.7459866635554
-55099.73221199874,-3727.493206003999
-55114.02463138209,-3706.743002677534
-55129.85467930397,-3682.887119953269
-55148.02439491207,-3660.529971225211
-55171.07448712552,-3646.6841982541255
-55203.201875851526,-3649.0961241845707
-55249.33388735239,-3674.0514257691607
-55313.453776009854,-3724.223504428047
-55396.64760406655,-3797.214803016375
-55495.607383880255,-3885.3510828376766
-55602.34317429935,-3977.0121556712515
-55705.56698924997,-4059.3695600113324
-55793.67179944397,-4121.955145998258
-55858.6028987641,-4160.136497003501
-55899.43137623493,-4177.448529885567
-55924.29460321644,-4185.898347832759
-55949.67555978093,-4203.814760357277
-55996.70906698983,-4251.458217742843
-56085.13898751868,-4345.274909290157
-56226.41376375018,-4492.177868249147
-56417.90385136184,-4685.405354195482
-56640.1489767374,-4903.261546623859
-56858.36525847126,-5111.418511288477
-57028.32306005516,-5268.595154238643
-57105.461187345165,-5334.5491802181505
-57055.10309967849,-5278.660002632858
-56861.20330244916,-5087.131938250351
-56531.32698720836,-4767.090034222591
-56096.49446189703,-4346.525818303691
-55605.84207314379,-3870.0069562563385
-55117.385810783446,-3391.048723569644
-54687.1390986656,-2962.8049926874655
-54359.16854323354,-2629.082968779302
-54158.798708044014,-2417.5427820637015
-54090.239217580216,-2336.364280893493
-54138.70411488917,-2374.814014709187
-54275.98137359141,-2507.2519551709042
-54467.69626735016,-2699.403698229915
-54680.35597835245,-2915.3508764077365
-54886.64234365035,-3123.7203814426225
-55068.15553076136,-3301.9331173116043
-55215.634968676575,-3437.9710492607555
-55327.33702576692,-3529.7618927765975
-55406.56169433857,-3582.798936036313
-55459.26071266575,-3606.8976880634223
-55492.31939245811,-3613.0063573154052
-55512.66136842213,-3610.774217285998
-55526.95627518847,-3607.234990675299
-55541.53911672546,-3606.5956903446904
-55562.20074592793,-3610.8348084518157
-55593.7159467493,-3620.668151942672
-55639.21755457476,-3636.44789073253
-55699.68331828069,-3658.6890202548625
-55773.80779408816,-3688.1090285974883
-55858.39175196485,-3725.2564770609583
-55949.16654574094,-3769.939898046627
-56041.78732927827,-3820.720728833566
-56132.65759083492,-3874.7001013928666
-56219.32542149987,-3927.7285358371487
-56300.38010142744,-3975.0331264620195
-56374.9943663809,-4012.126288371006
-56442.40355050386,-4035.7672970189296
-56501.62397681271,-4044.7163312580897
-56551.58141880725,-4040.059947328287
-56591.60647350008,-4024.9900551638048
-56622.05260457699,-4004.062760173241
-56644.70100662376,-3982.1133553557443
-56662.6815570348,-3963.1178070107703
-56679.8427915151,-3949.3318031482145
-56699.76087323164,-3940.983838897933
-56724.77518695615,-3936.6520671906414
-56755.477052582704,-3934.2481088117765
-56790.9267340924,-3932.321631050921
-56829.575242585386,-3931.2548846159757
-56870.54083435733,-3933.8943670877275
-56914.67447776334,-3945.2941928146092
-56964.85523495156,-3971.5038326093463
-57025.21150119189,-4017.655745776791
-57099.39405621508,-4085.897470900676
-57188.47399271921,-4173.864793560262
-57289.31984341211,-4274.3341194654695
-57394.28096994967,-4376.408643938535
-57492.6349467207,-4468.142642524952
-57573.63671517027,-4540.013584394169
-57630.34270432087,-4588.267803643068
-57662.91857881727,-4617.033395477182
-57680.07900397831,-4638.293511903686
-57697.73036139768,-4669.328893469294
-57734.70697077222,-4727.953077809689
-57806.47294301824,-4826.583445755465
-57918.48806795108,-4966.697799926083
-58061.31031638428,-5135.341763412831
-58209.2598257892,-5304.998207756075
-58323.61532237165,-5437.359520373028
-58360.07152443876,-5490.537606493515
-58278.90865318632,-5428.269760924522
-58055.400876355794,-5229.007687675438
-57687.71762393229,-4892.620906289674
-57200.0648847849,-4442.881248776204
-56639.961222207705,-3924.8376946992207
-56070.03756762521,-3397.411599423145
-55556.17572703469,-2922.7273047581266
-55154.76107365052,-2554.5281191384834
-54902.0525788519,-2328.286208140415
-54808.11679968572,-2255.222323150262
-54856.5896135449,-2321.506702103053
-55010.06119065836,-2492.6623274472763
-55219.52132421655,-2721.9617698364546
-55435.41010449876,-2960.714515728703
-55617.6000151395,-3168.002461697798
-55742.106830020086,-3317.7033342868067
-55803.31618792456,-3401.4446297500126
-55811.72528144892,-3427.2202847912954
-55788.30074059103,-3414.4803571235816
-55757.26930007947,-3387.2919448648536
-55739.33739142265,-3367.4833303333266
-55746.984956156106,-3369.4779304642466
-55782.74135677084,-3397.8975855790804
-55840.460652423215,-3448.1694367763544
-55908.81797534001,-3509.5527004761934
-55975.749546086205,-3569.4277486930855
-56032.45648791754,-3617.490358730054
-56075.87491659228,-3648.6841884147216
-56109.06649049229,-3664.191280543217
-56139.62986168928,-3670.418503667242
-56176.789421910464,-3676.4835943078683
-56228.13940410295,-3691.0690591594434
-56297.0395397727,-3719.5994205487605
-56381.39588569975,-3762.516253165896
-56474.11125752305,-3815.0573217201077
-56564.99814098726,-3868.511870083092
-56643.54966101992,-3912.5453357303513
-56701.76974702824,-3937.952167489244
-56736.3049999564,-3939.1422059200086
-56749.36499447965,-3915.779513057218
-56748.27515818861,-3873.22061622099
-56743.86332814576,-3821.674785529365
-56748.13917126224,-3774.2709303508127
-56771.82939471093,-3744.42135230384
-56822.28201752317,-3743.0002950785224
-56902.09894977954,-3775.8984454444285
-57008.66791699168,-3842.4731456395048
-57134.604804152295,-3935.28883716302
-57269.01395764991,-4041.33604103188
-57399.41599937689,-4144.642549763735
-57514.141286963415,-4229.879254021907
-57604.905081692144,-4286.2711817265845
-57669.156974412224,-4310.926975054059
-57711.672702027216,-4310.674039962504
-57744.80520700348,-4301.684696463793
-57786.92231863571,-4306.603111729716
-57858.87811459593,-4349.469316385254
-57978.87357488047,-4449.357286920874
-58156.64278013745,-4614.132950866845
-58388.37139519717,-4835.934849274283
-58653.91596011951,-5089.781248698047
-58917.60778980597,-5336.106666494959
-59133.17913092607,-5527.136810894443
-59252.28883136264,-5616.0310756117815
-59235.02511179011,-5566.912826398539
-59059.96589350427,-5363.5064895471905
-58731.17144709444,-5014.252405451892
-58280.01167004843,-4552.4793933160945
-57760.91110047365,-4031.330670144768
-57241.64108781947,-3514.3888967266753
-56790.26702501709,-3064.0066617098355
-56461.830508066654,-2729.933257385605
-56287.999178543774,-2540.7710251452227
-56272.17678762064,-2500.0999437982136
-56391.12561091572,-2587.9566070045175
-56602.42587884492,-2767.048787698593
-56855.58454725868,-2991.9762059871427
-57103.74993317718,-3219.1020096559196
-57313.021399454345,-3414.729385042208
-57467.23051431378,-3559.8552468767366
-57567.50680310085,-3650.8012503625628
-57627.47318590141,-3696.1567531508254
-57666.07323385011,-3711.3875799550483
-57700.48770137513,-3712.9247385364697
-57741.26068950687,-3713.4508146221187
-57790.79386285348,-3719.519595507955
-57845.134022113685,-3731.7874415785086
-57897.89643307719,-3747.283651858475
-57944.57126263021,-3762.562926669715
-57985.5142872048,-3776.4285177513043
-58026.552700462176,-3791.207526008474
-58077.08978049039,-3812.174240121576
-58146.51911587775,-3845.430430602896
-58240.34640602682,-3895.1186202792605
-58357.48222579578,-3961.0794794315175
-58489.72047951948,-4037.898678902339
-58623.63197007351,-4115.789016132791
-58744.26463115872,-4183.098182160218
-58839.43335228192,-4229.648294139095
-58903.20036871774,-4249.800565045123
-58937.432181165765,-4244.204417956359
-58950.96212359727,-4219.6142022004415
-58956.66626439141,-4186.797177761045
-58967.42008252112,-4157.198955764599
-58992.23830552864,-4139.460219885059
-59033.81331939045,-4136.944132209432
-59088.19994568335,-4147.109279558935
-59146.70001534413,-4162.950049632841
-59199.29793346926,-4176.024688216069
-59238.50647086207,-4180.034555167165
-59262.346890328095,-4173.69740042611
-59275.453777570525,-4161.8576456913015
-59287.88033666738,-4154.345525639725
-59311.91497123479,-4162.8583886547285
-59357.88165018596,-4196.844851638061
-59430.28187259282,-4259.786511707272
-59525.61198547846,-4347.23847918523
-59632.74161450265,-4447.493729254577
-59735.97482112733,-4544.911644308996
-59820.04819688269,-4625.046499406551
-59875.607928411606,-4680.015853432727
-59903.38606009146,-4712.301813327858
-59915.5017111634,-4735.493015092503
-59933.03665066995,-4771.295938976279
-59980.10565768245,-4843.253902904159
-60075.76919709535,-4968.690681780998
-60225.97831084842,-5151.111926972111
-60418.01431353783,-5375.408538139642
-60619.44777149392,-5607.634842051051
-60782.55617260503,-5800.000983442959
-60853.67031270045,-5900.314706178294
-60785.46875551841,-5863.817863898367
-60549.234086780605,-5664.558596646815
-60143.84974250085,-5303.370457349087
-59598.96778542082,-4810.246620990075
-58971.18022424224,-4240.233791871734
-58333.81183025861,-3663.5822574604945
-57762.63664684962,-3152.346956210045
-57320.917708637,-2766.5450310193464
-57047.37004708204,-2543.0890529699773
-56949.88121355001,-2489.9992276160715
-57006.30538297676,-2587.0464502590635
-57171.80377329557,-2792.3579275427455
-57390.55375241036,-3053.0650767697484
-57608.64435994412,-3317.1738822530397
-57784.877245141135,-3543.71573247629
-57896.99014264632,-3708.896806075755
-57942.24978444159,-3807.193854967381
-57932.98670597455,-3847.7788883035996
-57888.99085803641,-3847.8850761725917
-57829.384073337336,-3825.4150376624166
-57766.47088640364,-3793.0726952854034
-57703.22568415148,-3755.6151070238357
-57634.79625218966,-3710.7077065096073
-57553.09666665852,-3652.6787895085813
-57452.62236841823,-3577.5692068198814
-57335.31145235997,-3487.5238277977865
-57212.66761086184,-3392.8596400822867
-57104.30025303984,-3310.9614297699745
-57033.22499754693,-3262.2310627939187
-57019.33034638659,-3264.308303667881
-57073.03361864801,-3326.3803086206644
-57191.139239438846,-3445.420478847269
-57356.28597595394,-3605.642628234672
-57540.31789751044,-3781.4988204156166
-57710.75464840462,-3943.4856149033
-57838.61375992552,-4065.1793779392315
-57905.42522589101,-4129.551053003675
-57907.49609557812,-4132.820937056163
-57856.26687144036,-4084.833519324522
-57774.717082300194,-4005.9375646658414
-57690.89758097932,-3921.3421177262076
-57630.459776331634,-3854.5929249885066
-57610.28672160834,-3821.98569717433
-57634.94527955847,-3829.3695987172146
-57696.79498197991,-3872.026105306072
-57779.4850400045,-3937.382795666234
-57863.58472308966,-4009.524723451073
-57932.5246825501,-4074.032211023961
-57977.04493422825,-4121.715172740808
-57996.92546336803,-4150.289332044814
-57999.7201645239,-4163.77341032485
-57997.2047622015,-4170.129176692804
-58000.95852025955,-4178.177397765646
-58018.69817320712,-4194.947466141385
-58052.6099530386,-4224.335742116867
-58100.124581297125,-4267.373169721196
-58156.634115626206,-4323.747524036453
-58218.89439259157,-4393.723841690963
-58287.56899646401,-4479.436685524863
-58367.65940552716,-4584.753146253759
-58466.34534042567,-4713.452686254237
-58588.76228200804,-4866.153368846757
-58733.12026049579,-5036.996558894833
-58886.99879388592,-5211.373573719014
-59026.46389132919,-5365.824711160066
-59118.87331831382,-5470.686443855693
-59129.10169566688,-5495.261019384329
-59027.78493330354,-5414.4741699403085
-58799.42528069884,-5215.422260466445
-58448.0682352468,-4902.074240570977
-57998.82165350539,-4496.745840741491
-57494.575165681614,-4037.719105586148
-56988.57150163073,-3573.3355405238585
-56534.59102302934,-3153.7827032936566
-56177.11899258399,-2822.3771955647335
-55943.80340947188,-2608.2659685163544
-55841.824434890375,-2522.098844179001
-55858.7139619124,-2555.479324481546
-55967.01681942317,-2684.0879182553012
-56131.30088337266,-2873.5375309807737
-56315.62821346108,-3086.474107092313
-56489.75147035248,-3289.296505184696
-56632.89307678124,-3457.138316264284
-56734.7698728751,-3576.3227016053224
-56794.28563148174,-3644.191300999473
-56816.81083684864,-3666.8280252612954
-56811.106735118585,-3655.5972150848893
-56786.75191499587,-3623.5208294777826
-56752.52525225934,-3582.348097494144
-56715.75953708637,-3540.8138386310366
-56682.35994308253,-3504.166650057906
-56657.06309379659,-3474.6992922060854
-56643.59304133117,-3452.815243360349
-56644.57377923312,-3438.143766680026
-56661.27464729602,-3430.3406247959792
-56693.398508691855,-3429.414496670547
-56739.12609215658,-3435.6213359381277
-56795.51561615712,-3449.10728844828
-56859.18859835697,-3469.525170583597
-56927.09012915407,-3495.80629507141
-56997.06138920943,-3526.17273883025
-57068.02435315798,-3558.3702618215807
-57139.73017330972,-3590.0279253422013
-57212.196722697496,-3619.0271818918995
-57285.08995993973,-3643.788428380501
-57357.33173736318,-3663.4366159585175
-57427.13359793848,-3677.862089604501
-57492.49014696661,-3687.7252024162817
-57551.98356846631,-3694.4527368506833
-57605.61606693661,-3700.2451352354838
-57655.35356071186,-3708.0720420786765
-57705.14200251654,-3721.6001401317535
-57760.32046892932,-3744.988475993218
-57826.546619538894,-3782.5095108985392
-57908.50528862037,-3838.004348730565
-58008.74188675876,-3914.2435643531276
-58126.9310167905,-4012.321377530413
-58259.77332369689,-4131.24191886656
-58401.55169256261,-4267.848956141074
-58545.22131933392,-4417.200271690364
-58683.7969674505,-4573.400122081249
-58811.75304356276,-4730.792113151139
-58926.164790489485,-4885.301915338269
-59027.37105973081,-5035.630644532756
-59119.010546439735,-5183.962279686933
-59207.35999213111,-5335.884412124877
-59299.98649295989,-5499.34198626972
-59403.82444548087,-5682.6417637354525
-59522.91026401045,-5891.771988821332
-59656.14244846642,-6127.546115028263
-59795.55209885317,-6383.255631963509
-59925.61767804393,-6643.5588412475645
-60024.08570424106,-6885.192836198511
-60064.53254507749,-7079.766612149974
-60020.53203743685,-7198.417697324285
-59870.84269548351,-7217.588899440092
-59604.60946591505,-7124.738550163513
-59225.32263976433,-6922.576100470705
-58752.30888763264,-6630.520983120436
-58218.90354031947,-6282.551235208052
-57667.13839874804,-5921.379365405841
-57139.6420919608,-5589.810990519328
-56670.28396511231,-5320.9841084296095
-56275.66083407207,-5129.715750060212
-55949.62971382481,-5007.210402380251
-55662.633510897,-4920.833540715837
-55366.58881687229,-4819.593689864654
-55004.80380924026,-4644.62461096086
-54525.07222951212,-4342.637489668718
-53893.09396561912,-3879.371642989197
-53103.00206175898,-3249.7964977762927
-52182.18983295105,-2482.3428138032227
-51188.7996973514,-1635.7015718800508
-50201.92013658378,-788.4576257106961
-49306.34442877551,-23.60952835523952
-48575.221306768406,588.591005676246
-48054.65510498427,1005.4496989804564
-47754.06127740143,1220.648421335386
-47644.849586379314,1264.755807828446
-47668.05212843809,1197.080115494853
-47749.30694666015,1090.6432990059996
-47817.70901256427,1013.8048176200818
-47823.95920728933,1012.9720885712487
-47753.29244219681,1100.64493775497
-47629.87774548254,1251.7770494897713
-47511.47402744468,1409.4029315376038
-47475.5723234414,1498.185848373157
-47600.420794620775,1442.5769190554138
-47945.63923699239,1185.1446342296003
-48537.22771158484,700.6286691270468
-49360.62630765967,2.389294827393413
-50363.39156647731,-860.1328322429579
-51466.58170988717,-1812.0735851050597
-52581.74960475058,-2769.062035226613
-53629.11736567986,-3654.338463957058
-54552.380277858654,-4412.889702246515
-55326.67889823035,-5019.370848457678
-55958.243731456896,-5478.330844421207
-56476.4974207808,-5817.315720071957
-56921.35670372801,-6075.231861879574
-57329.58482164812,-6289.440276043825
-57724.032859223735,-6485.158501712606
-58108.53289088534,-6669.881190156377
-58469.41593711983,-6833.968323611058
-58782.665498570575,-6956.746764096124
-59024.13960560043,-7015.931597718278
-59179.53564086109,-6997.313998917271
-59250.99987936732,-6901.6965506352335
-59258.39100294076,-6746.94619338033
-59234.83661762698,-6564.505717924291
-59217.89455760643,-6391.331425570305
-59238.87602099684,-6259.551251795174
-59313.38180410803,-6186.803656607449
-59435.74310154165,-6170.053200786889
-59578.97856295516,-6184.7452998932795
-59700.40132528676,-6189.728518882163
-59751.53766315471,-6136.833925675807
-59689.933499907966,-5982.770181621506
-59489.98448737691,-5700.3884885047555
-59150.20714794436,-5286.535667039435
-58695.26786819845,-4764.582104227279
-58172.35174011524,-4181.038336937195
-57642.76387409696,-3597.105116428083
-57170.69820361325,-3077.17155767498
-56811.65973796832,-2676.904098853741
-56602.98089179424,-2433.5285775153225
-56558.28332187833,-2360.2493895040348
-56666.768030848325,-2445.6774757584512
-56897.11522292437,-2657.947199036918
-57204.80126955313,-2952.193061108118
-57541.00960785841,-3279.4612751393506
-57861.1470630504,-3595.05330465827
-58131.2820923177,-3864.7011018155113
-58331.487499157774,-4067.6999571910305
-58455.90408609692,-4196.951423780365
-58510.1248535293,-4256.572860972633
-58507.03459423645,-4258.149597715151
-58462.41270244209,-4216.776683736122
-58391.409767298006,-4147.800276954652
-58306.53565538182,-4064.744525048921
-58217.21733495942,-3978.4538298168422
-58130.48410839111,-3897.13235918784
-58052.06454653005,-3826.8062422030803
-57987.19553074246,-3771.7781255808923
-57940.71371653008,-3734.830392391429
-57916.40107862713,-3717.1650238820143
-57915.93060726392,-3718.2469101296138
-57937.96311037556,-3735.7797125093307
-57977.90988658879,-3765.9793040402674
-58028.618013375046,-3804.161840306259
-58081.86395694546,-3845.505644940642
-58130.202216448015,-3885.7522851096287
-58168.55137639398,-3921.626169347485
-58194.97697026781,-3950.869694062366
-58210.4264784617,-3971.962377407844
-58217.5744341004,-3983.74181365384
-58219.2860393326,-3985.201317437014
-58217.36183102073,-3975.668883852952
-58212.11224185633,-3955.392162474643
-58202.96159044375,-3926.3315011434524
-58189.82657609811,-3892.790828497577
-58174.63561949737,-3861.4777809406414
-58162.216084877946,-3840.7191447670193
-58159.95574978403,-3838.8392525651343
-58176.10040751158,-3862.0486532292084
-58217.12310799585,-3912.4636396335704
-58285.071365100885,-3986.9671316398153
-58375.96586880129,-4077.4636853604825
-58480.08205057241,-4172.694695678282
-58584.34034978625,-4261.268921194624
-58676.25176917822,-4335.0914499002665
-58748.18737112996,-4392.111394777393
-58800.43304581396,-4437.373419554533
-58841.710748899226,-4481.770849488787
-58886.577775083446,-4538.563701138847
-58950.14985199184,-4618.454303739972
-59041.59705739364,-4724.577253382858
-59158.483328819166,-4848.962292970536
-59284.003181200096,-4971.77012143241
-59388.4637988707,-5063.921496744022
-59435.14283556777,-5092.813049532433
-59389.28268891227,-5029.900446444615
-59227.89678841906,-4858.303226773041
-58947.62678382757,-4578.445127859987
-58568.27668357357,-4210.151381021645
-58130.77317966439,-3790.4823798688335
-57689.83849321136,-3367.658923035308
-57303.149719717054,-2992.4288581897813
-57019.74354922652,-2708.8616259880732
-56870.60715468542,-2546.6638249692073
-56863.72793863578,-2516.6681360050866
-56984.573930146245,-2610.2993902430276
-57201.45514396147,-2802.816155282945
-57473.94014839816,-3059.247667741021
-57761.84799850765,-3341.4249053714866
-58032.46166767663,-3614.4526336268186
-58264.42414137445,-3851.3528415862643
-58447.96557641868,-4035.2710436418934
-58582.26553060038,-4159.351314049352
-58671.50005315787,-4224.938848671317
-58721.25392069592,-4239.0218151089475
-58736.50943250977,-4211.751907406218
-58721.58008753844,-4154.569477751036
-58681.47856923425,-4079.0575745883157
-58623.62791520424,-3996.321141158666
-58558.73991466803,-3916.5440685821595
-58500.10454521304,-3848.4425724326243
-58461.26746983871,-3798.5457589406724
-58452.82231371411,-3770.4748794321717
-58479.50443221074,-3764.539140588709
-58538.76076829902,-3777.942364209677
-58621.47829639841,-3805.703124808002
-58714.76945066714,-3842.1095346197753
-58805.93093237672,-3882.2811397890064
-58886.21768432806,-3923.3105520237655
-58953.09780455393,-3964.5668143823264
-59010.182737784125,-4007.0372576670106
-59064.87701790606,-4051.9611258888544
-59124.65112324529,-4099.319838905598
-59193.38481778503,-4146.861714796463
-59269.23973166654,-4190.187105050511
-59344.97575559322,-4224.036271723922
-59410.70692165918,-4244.434693567872
-59458.13092684849,-4250.939813378416
-59484.62348157862,-4248.068866734524
-59495.522441731664,-4245.1615346072285
-59503.49747861736,-4254.417037195054
-59524.93053359414,-4287.49653249048
-59574.36869065344,-4351.675398453281
-59658.93886594082,-4446.841319269915
-59774.80729303932,-4564.517464765418
-59907.2091214275,-4689.538303218873
-60034.41219116815,-4804.164761931445
-60134.58707444819,-4893.556852611618
-60193.41138530556,-4950.921269274784
-60209.763329717,-4980.550528040025
-60197.271533305255,-4997.452951483125
-60180.70854648749,-5023.236104630966
-60187.88504777775,-5079.080511050365
-60239.2857029509,-5177.6663097502105
-60338.652785569815,-5316.454698599453
-60467.71162326167,-5474.571150851644
-60587.18944632083,-5614.685143102408
-60644.48512127966,-5689.943709286724
-60586.33533531416,-5654.565245238193
-60373.213222151775,-5475.558876513991
-59991.50164500547,-5142.550917107889
-59459.94217164361,-4673.03822142073
-58828.35768417819,-4111.477119406119
-58168.74518187982,-3522.1660261488328
-57560.91738899193,-2977.4645142789877
-57076.32369598777,-2544.075424779003
-56764.09538257866,-2270.579117344302
-56642.635420618375,-2179.0368644294576
-56698.46731296129,-2262.3957864720555
-56892.0671208436,-2487.9467606489707
-57168.62179626643,-2805.6225175564605
-57470.58171926897,-3158.8638490866224
-57748.76100415026,-3495.381445915354
-57969.5348029627,-3775.454512683115
-58117.06996320919,-3976.288526955506
-58191.0330520431,-4092.11172856862
-58201.38722830096,-4130.781594268181
-58162.40704479399,-4108.409854609553
-58087.832979825645,-4043.7401904656217
-57988.31928127221,-3953.7334201396397
-57871.323104972274,-3851.182242225015
-57742.70253008294,-3744.4263775672503
-57608.813846063065,-3638.607403251674
-57477.93184925708,-3537.559502712905
-57360.281777786935,-3445.4343578885296
-57266.64533495438,-3367.4470905463236
-57206.11637563797,-3309.5660817003204
-57183.91157309314,-3277.3877978597284
-57200.0935527544,-3274.7048722361596
-57249.68863258672,-3302.328394519652
-57324.14738311665,-3357.581180045135
-57413.61579222856,-3434.6178393490354
-57509.23503205393,-3525.455520344947
-57604.74462302281,-3621.4071908847177
-57696.98408845735,-3714.544187067292
-57785.3294952785,-3798.8705046449463
-57870.48731697055,-3871.0211733128344
-57953.25221551295,-3930.4390985453915
-58033.76032081393,-3979.0894109069363
-58111.48123741002,-4020.818413728831
-58185.82265661717,-4060.4688453127847
-58256.92942354013,-4102.8566777818505
-58326.16892093346,-4151.727075570937
-58395.94569469704,-4208.8469954279635
-58468.818794410894,-4273.438669822182
-58546.2632800473,-4342.170145024171
-58627.66102948582,-4409.853981711681
-58710.10262140271,-4470.8453583621485
-58789.306372502775,-4520.90024609119
-58861.4957800673,-4559.0202564463125
-58925.59611159164,-4588.665290281665
-58984.81207495128,-4617.7423312955925
-59046.6824686214,-4657.01857555147
-59121.11500815931,-4717.029962119461
-59216.5862072289,-4804.059771273077
-59335.43703291796,-4916.19472813306
-59469.740493785706,-5040.672059641412
-59599.338876386144,-5153.602715761733
-59693.244115615846,-5222.677484032034
-59714.729289576586,-5212.726817100835
-59629.342448779054,-5093.1966747176175
-59414.07121754196,-4845.949952530605
-59065.3054739675,-4471.51140339591
-58603.30441224236,-3992.060792066787
-58071.60769939637,-3450.132070474888
-57531.06467721531,-2902.949036784043
-57049.56026477426,-2413.375362270977
-56689.68325722084,-2039.3028529232345
-56497.17660554288,-1823.7173188106863
-56492.8451746788,-1787.5508355022407
-56669.71801587874,-1926.7842032931837
-56995.91946594992,-2214.2742012103663
-57422.281405145055,-2605.7064759104155
-57892.62664204076,-3048.191753752898
-58354.16401984944,-3489.5443779255615
-58765.661311626645,-3886.3038397180985
-59101.88498447608,-4209.039406708135
-59353.93775469741,-4444.25433413363
-59526.22305021229,-4593.053437436124
-59631.50865873061,-4667.432913932849
-59685.77351625815,-4685.436162348883
-59704.20858085925,-4666.438743831137
-59699.07773950316,-4627.531302197456
-59679.39234617982,-4581.491972112294
-59651.77548027659,-4536.340854747274
-59621.65602566036,-4496.088450476112
-59594.06607710351,-4462.107314365334
-59573.70617773243,-4434.576686632814
-59564.398037923376,-4413.6151195076845
-59568.36766405234,-4399.93503469763
-59585.86968073921,-4395.038811300471
-59615.4682138879,-4401.075700294184
-59654.93572763553,-4420.487015415164
-59702.38551949382,-4455.518475729458
-59757.07730708148,-4507.626641087749
-59819.41636377764,-4576.796020987526
-59889.982027293045,-4660.830172106575
-59967.85046363704,-4754.763258557528
-60048.84338180477,-4850.610916417125
-60124.48115082311,-4937.688826738662
-60182.267999966825,-5003.642119339955
-60207.52315855477,-5036.154096403336
-60186.433952988365,-5025.084685461487
-60109.53540606608,-4964.600187260908
-59974.59327619036,-4854.7701246638
-59787.97430356818,-4702.171046211662
-59564.00735869418,-4519.250243293143
-59322.4351659816,-4322.511959667833
-59084.63393262809,-4129.904638989884
-58869.63987070056,-3958.0107829057083
-58691.05169065296,-3819.6960487593633
-58555.56839103562,-3722.7372522530363
-58463.38114606456,-3669.6573933960785
-58410.04998077413,-3658.6386843978535
-58389.05651560438,-3685.0747029686877
-58394.07317865424,-3743.160417227106
-58420.16888212408,-3826.9580203449354
-58463.608003259054,-3930.6062411900525
-58520.44182346392,-4047.6869184998714
-58584.55385098847,-4170.11069823771
-58646.05032166302,-4287.115491523709
-58690.81183461607,-4385.003253975283
-58701.66871366418,-4448.051851573087
-58661.14592989893,-4460.6794409260465
-58555.20557086285,-4410.515908855693
-58377.05403091843,-4291.680815096598
-58129.98421546536,-4107.395014292655
-57828.41533818486,-3871.1264688899896
-57496.718257660905,-3605.7800424169095
-57165.95124250783,-3340.906154311432
-56869.13542318714,-3108.3968898271164
-56636.04062015424,-2937.523782324908
-56488.55060963432,-2850.342924647237
-56437.5177109607,-2858.4053733846854
-56481.65216551012,-2961.3921010414606
-56608.52123843858,-3147.8343414909045
-56797.27819400782,-3397.608452028626
-57022.40821556452,-3685.5334058395656
-57257.64211449354,-3985.2351283153935
-57479.26545730537,-4272.5012036684975
-57668.30487988526,-4527.59398644765
-57811.42348928477,-4736.333001636397
-57900.70272070203,-4890.091895086287
-57932.733873780766,-4985.087391666198
-57907.52869098292,-5021.414106198515
-57827.67232184562,-5002.199099891208
-57697.92817716071,-4933.062152594521
-57525.2401774003,-4821.8499681150715
-57318.86168934096,-4678.44557488751
-57090.24746359006,-4514.3947363002635
-56852.41025529992,-4342.154814216601
-56618.64513211512,-4173.929682022061
-56400.79057661984,-4020.2458373860272
-56207.428916860445,-3888.5778924451793
-56042.53741578273,-3782.387942277609
-55905.03893176075,-3700.877816216621
-55789.47147574908,-3639.5818537534888
-55687.67217610576,-3591.702092676213
-55591.05635266649,-3549.877673285508
-55492.87424586748,-3507.951896168708
-55389.81822168109,-3462.294832840742
-55282.54115230778,-3412.3601844752034
-55174.97582220559,-3360.3674488316306
-55072.70998823663,-3310.2425316481535
-54980.95555435232,-3266.151937210559
-54902.76248563239,-3231.070821022308
-54838.035108561846,-3205.8059835481645
-54783.645106522985,-3188.759938639549
-54734.59284284374,-3176.5120875908565
-54685.8533354972,-3165.067100722944
-54634.35422109789,-3151.4391718757806
-54580.51671454908,-3135.148498336357
-54528.937599129575,-3119.2213392317835
-54488.03833271601,-3110.3968393082364
-54468.77173460007,-3118.419353705107
-54482.67857346236,-3154.490017807517
-54539.68113556078,-3229.1231898913643
-54645.98959076756,-3349.7713068691532
-54802.41439056133,-3518.631262653643
-55003.27872034451,-3731.0277156588445
-55236.04961830271,-3974.695098267264
-55481.769031384334,-4230.165685139101
-55716.34896507811,-4472.329958542181
-55912.7587555181,-4673.079188776215
-56044.04190124947,-4804.779451939459
-56086.94085662333,-4844.175081519883
-56025.70844135659,-4776.197594371496
-55855.500504101714,-4597.088979865069
-55584.6530644168,-4316.262617439689
-55235.209208374974,-3956.440699249043
-54841.29980526301,-3551.8271348982366
-54445.366988339534,-3144.3791012233737
-54092.66965031423,-2778.5829452766643
-53824.91544847967,-2495.4558017436993
-53674.11523501955,-2326.7112329217307
-53657.78199521197,-2290.0844956697865
-53776.376632192514,-2386.6780271685125
-54013.4859177812,-2600.8683925048995
-54338.69440389943,-2902.8639857470284
-54712.60090850815,-3253.5057163238316
-55093.04120277669,-3610.4659134988756
-55441.38817886045,-3934.722354295217
-55727.83884090184,-4196.132256830802
-55934.84204481215,-4377.123574157367
-56058.2120105363,-4473.920029314692
-56105.92356937719,-4495.234739650053
-56095.01071585937,-4458.887932818773
-56047.30898910936,-4387.208263162717
-55984.94300146662,-4302.273170409854
-55926.43855514181,-4221.9907828553305
-55884.14499248963,-4157.744611772933
-55863.328889983066,-4113.889709806396
-55862.91406395847,-4088.9187696544104
-55877.479523562695,-4077.7295064154414
-55899.86619650349,-4074.216343290282
-55923.65156407155,-4073.425207651168
-55944.85022305344,-4072.733105227322
-55962.46471305681,-4071.8700426052496
-55977.87393652029,-4071.980251659802
-55993.40187228568,-4074.2092529876427
-56010.65277773724,-4078.419251227014
-56029.252489955616,-4082.548144433479
-56046.47804452003,-4082.870712545167
-56057.93582755455,-4075.0810682720376
-56059.06405166282,-4055.806421778036
-56046.91862269982,-4023.9878864217867
-56021.56583705825,-3981.586193963706
-55986.50938630379,-3933.286959475392
-55947.90044700429,-3885.224608399477
-55912.71734017033,-3843.1035970945736
-55886.50625295018,-3810.3467356294623
-55871.49675151134,-3786.949263004924
-55865.84907621848,-3769.531860567847
-55864.44864419248,-3752.7103279026987
-55861.13278768997,-3731.4450887340304
-55851.6858782237,-3703.6457204287676
-55836.5648755416,-3672.1197952844827
-55822.26736739398,-3645.0523054204264
-55820.58135644601,-3634.578190976125
-55845.58603139051,-3653.5731020130793
-55909.02652303069,-3711.3773107861257
-56015.32367832008,-3809.6042422165597
-56157.782144137534,-3939.3209738478063
-56317.398547968674,-4080.655817915421
-56465.05489669747,-4205.325295590204
-56566.96483010718,-4281.816550964771
-56592.28041234978,-4282.212744165038
-56521.047946704726,-4189.117807832087
-56350.45099882149,-4000.9811768945456
-56097.59106635442,-3734.402627255786
-55797.86569463867,-3422.654762952385
-55499.09618949232,-3110.5351720850585
-55252.63472159062,-2846.530894627507
-55103.448929310056,-2673.9235656940673
-55081.43327870598,-2622.7227703669473
-55195.87322806743,-2704.127659949291
-55434.1892305832,-2908.6374940747314
-55765.04452295473,-3208.111881243656
-56144.89474180366,-3561.2257035387106
-56526.34703578464,-3921.0745549461612
-56866.43986434316,-4243.313167891149
-57133.17431209392,-4493.21407243421
-57309.21539998484,-4650.384057667598
-57392.444695277816,-4710.461657295618
-57393.76487009133,-4683.787210135961
-57333.05996348065,-4591.634665751918
-57234.416622871424,-4461.003292268634
-57121.62160480476,-4319.127285817948
-57014.65991480178,-4188.773189570379
-56927.57083980219,-4085.1107890546355
-56867.68988245656,-4014.544647546427
-56836.08021355961,-3975.470323260846
-56828.849130680464,-3960.5508254182805
-56839.01906937548,-3959.852994595316
-56858.62901837933,-3964.0730095338063
-56880.74455654607,-3967.1232716532495
-56901.05076090634,-3967.5351705301773
-56918.71990862439,-3968.418983381248
-56936.32743852887,-3976.0607292053483
-56958.76033749722,-3997.5601702642716
-56991.309485567625,-4038.153953777847
-57037.400560538124,-4098.962211951647
-57096.60523513765,-4175.810898172255
-57163.5969916301,-4259.521309583326
-57228.52404784821,-4337.675083033758
-57278.88913316852,-4397.4503533169345
-57302.551743436255,-4428.7956300258975
-57291.05183484898,-4427.064473432256
-57242.25032809122,-4394.335090711913
-57161.38916334048,-4338.976186765589
-57060.09555622347,-4273.512550637514
-56953.48177253476,-4211.353891942563
-56856.13015504002,-4163.322744882499
-56778.18403214899,-4135.025167651773
-56722.820217701614,-4125.897007377941
-56686.00463527459,-4130.270560452059
-56658.71709662146,-4140.1749841409255
-56630.9937629582,-4148.998883219139
-56596.45069447389,-4154.795509222769
-56555.66915360802,-4162.029684246118
-56517.07341550748,-4180.973735547317
-56494.673711446856,-4224.658167140642
-56503.07212180517,-4304.073104986481
-56551.11488852082,-4422.957331497246
-56636.19057378374,-4573.791939783496
-56741.18727649597,-4736.422672858969
-56835.48471352886,-4880.095350639269
-56880.22766069512,-4968.767014513927
-56836.83503658011,-4968.609999058573
-56676.63933761424,-4855.934186729791
-56389.06673996407,-4623.526331788352
-55986.031789039465,-4283.725594112271
-55501.18027411863,-3867.3438602223046
-54983.99706981664,-3418.5827290998795
-54490.19606826471,-2987.105928446613
-54070.81411283482,-2619.1172634175973
-53762.73597316386,-2349.48462843935
-53582.90856959182,-2196.6021325269303
-53527.41018820237,-2160.9124318066442
-53575.16864928512,-2227.0534389305203
-53694.89017472774,-2368.723584614868
-53853.02980019694,-2554.811809765217
-54020.59716404087,-2755.236663311137
-54177.21340342053,-2945.2666259231546
-54311.874339120266,-3107.708109738589
-54420.97057819038,-3233.032680502718
-54504.90597187741,-3318.055643472031
-54564.90469771156,-3364.0280237029606
-54601.26291519128,-3374.9273849568985
-54613.54473160799,-3356.4064731003687
-54602.34480047367,-3315.435321019422
-54571.57035788106,-3260.321965890422
-54529.97573323172,-3200.644439560772
-54490.98080733487,-3146.7110730891227
-54470.49824464794,-3108.4318886461388
-54483.31254192244,-3093.807766911029
-54539.1834648815,-3107.485826865758
-54640.04360799084,-3149.886348555532
-54779.34177539893,-3217.2523738215796
-54943.85937711109,-3302.6667538427973
-55117.45926306161,-3397.7428762261625
-55285.533698592255,-3494.458380773121
-55438.6628060647,-3586.5610166713077
-55574.27774483659,-3670.1513618598797
-55695.8480195718,-3743.3728104971497
-55810.020583624166,-3805.4891174685786
-55922.89164733405,-3855.865635462629
-56036.90785391861,-3893.3954189209203
-56149.64515485992,-3916.7093981004746
-56254.98287223071,-3925.154326361947
-56346.24367691738,-3920.1511064613724
-56420.062598773446,-3906.31071204714
-56479.39319416828,-3891.69150073173
-56534.31054138322,-3886.847627575587
-56600.05587956711,-3902.75991850298
-56692.81177400843,-3948.1991651021344
-56824.61011682134,-4027.369134589197
-56999.204247158304,-4138.681446159668
-57210.49076361332,-4275.195660718536
-57444.20204677773,-4426.703520932708
-57682.39932616543,-4582.830040561796
-57909.207440556216,-4736.085435850607
-58115.6629530701,-4883.708548165245
-58301.74285418037,-5027.463353651787
-58474.57682327805,-5171.212335572927
-58643.22927169876,-5316.893707438969
-58811.785593554,-5460.206609468338
-58973.29857110434,-5587.612623490014
-59107.11283426824,-5676.052283837208
-59181.14029518248,-5696.071335079639
-59159.08003907137,-5618.037557655098
-59010.86798133886,-5420.103642812743
-58723.38113303866,-5095.857634494853
-58308.05589453932,-4659.444931097019
-57802.77331345945,-4146.431114569817
-57266.934376556695,-3609.69718864613
-56770.61813337977,-3110.9461810349553
-56380.47056682053,-2709.592396454461
-56145.96208721941,-2451.5601915424504
-56089.56880772943,-2360.616699937291
-56203.31270883807,-2434.2677052480003
-56452.2981738827,-2645.119657053096
-56783.96977787744,-2947.2635580780384
-57140.36642964404,-3286.0346454086794
-57470.064690354426,-3608.7625073670706
-57736.90834793408,-3874.0284839590254
-57923.81162282831,-4057.4862903117864
-58031.4750700428,-4153.29903517819
-58073.26483076798,-4171.407347399743
-58068.366546498815,-4131.849106789473
-58035.44092129668,-4057.946067630739
-57988.44133740213,-3970.2327511643703
-57935.277929102696,-3882.5608639286806
-57878.99600880655,-3801.0355076516953
-57820.41076956411,-3725.5720599662086
-57760.89123037618,-3653.151889911738
-57704.21382232146,-3581.4819338037
-57656.94852096804,-3511.79828100651
-57627.45509791534,-3449.948413171381
-57624.03118589742,-3405.4966592124388
-57652.938478865326,-3389.2319669451144
-57716.93450887481,-3409.934831561998
-57814.657848594106,-3471.457416200362
-57940.89625426621,-3571.049849617833
-58087.53640731257,-3699.477914399887
-58244.9029785253,-3842.9434391137033
-58403.2223449145,-3986.2922903378862
-58554.02084081352,-4116.620973257737
-58691.31584227308,-4226.271281923702
-58812.4493714312,-4314.364073799811
-58918.37485219109,-4386.423987510591
-59013.20555582374,-4452.179751346117
-59102.935201239765,-4522.146627864538
-59193.46457676216,-4603.965259672488
-59288.36122219804,-4699.577882794607
-59387.02249214993,-4804.12722456691
-59483.97025622706,-4907.003795749605
-59569.79065835501,-4994.856572512288
-59633.74993312983,-5055.782408645028
-59667.49843392305,-5083.491987368993
-59668.73326108376,-5080.1482231002765
-59643.45436322883,-5056.842282087471
-59605.67289579233,-5031.267900957164
-59574.11471366669,-5022.934922324291
-59566.4369676318,-5047.0215310823505
-59592.43574403899,-5108.483540156322
-59648.32700842136,-5198.149932934371
-59714.1729418145,-5292.1702881638785
-59755.82746656917,-5355.403994556383
-59731.54248287613,-5348.335984974958
-59601.96019457901,-5236.12842670007
-59341.05546870603,-4997.739825287283
-58945.07460245595,-4632.863038702558
-58436.84512847303,-4164.826251630231
-57863.95179392353,-3638.488239146603
-57290.87863107475,-3113.3274055909405
-56786.84254457849,-2653.078376045777
-56412.21126457582,-2314.113840021131
-56206.76784957552,-2135.0853668400887
-56182.55872825531,-2130.045668335882
-56322.81562705713,-2286.4557886556445
-56586.85441834541,-2568.348849518598
-56919.39273488608,-2923.7671072671483
-57261.79078730212,-3294.6964221664243
-57562.5278081922,-3627.2968084917597
-57784.75736842871,-3880.3437676436283
-57909.8076173457,-4030.383800060283
-57936.65715498349,-4072.9845231102568
-57878.3716131133,-4020.3827038706895
-57756.99195705255,-3896.570751424848
-57598.35726662359,-3731.2539851964234
-57427.927419840096,-3554.1049454497734
-57268.06168088509,-3390.395081189976
-57136.64799034063,-3258.5385825172366
-57046.63890393262,-3169.5124349128428
-57005.99712848244,-3127.6773014230394
-57017.72845002418,-3132.3122870388706
-57079.95074710045,-3179.210317296161
-57186.16728230554,-3261.902999967357
-57325.98122758037,-3372.389734112136
-57486.388408381965,-3501.5200409731774
-57653.57417511169,-3639.3307095119967
-57814.92306740592,-3775.630948631956
-57960.82248620095,-3900.977860636425
-58085.85921911306,-4007.9571935873255
-58189.15950476609,-4092.4699894337914
-58273.84582947119,-4154.607899095634
-58345.79603930375,-4198.7297286845405
-58412.02303191011,-4232.532136839256
-58479.02185767421,-4265.191580815585
-58551.37516428808,-4304.959212735758
-58630.81540950761,-4356.819154194412
-58715.85910081229,-4420.892312440779
-58802.07453551224,-4492.141679768074
-58883.00459148559,-4561.625077175489
-58951.70144297353,-4619.117457333189
-59002.70774238952,-4656.497752482679
-59034.141219972575,-4670.988459332484
-59049.35755205996,-4667.252522553223
-59057.56915253422,-4657.542367700847
-59072.87803773317,-4659.5390237392485
-59111.489115464814,-4692.120546530737
-59187.37382052166,-4769.90920327793
-59307.22970711038,-4897.898549303473
-59466.040638306185,-5067.613751022816
-59644.69346569437,-5256.038945830979
-59810.82460841345,-5427.976662972681
-59923.36065937234,-5541.70579673119
-59940.23363485005,-5556.967453674523
-59827.76423125366,-5443.647809962256
-59569.525356491984,-5189.226716212525
-59172.37027272457,-4803.218492936202
-58667.83138582398,-4317.430072180867
-58108.16738867228,-3781.768539527697
-57557.67887467053,-3256.328365696259
-57081.14931192103,-2801.3331075152555
-56732.03783557541,-2466.988493022742
-56543.12272707513,-2285.3069035819317
-56521.64666099357,-2265.4930512575133
-56649.83780292691,-2393.6621532747995
-56890.3211013031,-2636.7039569555736
-57194.78129861175,-2949.2438304868692
-57513.60757433679,-3282.084968253778
-57804.27660631069,-3590.3566564470207
-58036.85307772049,-3839.845585142667
-58195.9594539369,-4010.5508373672315
-58279.56786934086,-4097.210936958437
-58295.69554786869,-4107.217933240682
-58258.36370397412,-4056.806208729795
-58183.997292485314,-3966.598491413787
-58088.94153721268,-3857.5063720313647
-57988.1794099337,-3747.686494265779
-57894.878306731385,-3650.8576668607607
-57820.2152391726,-3575.905410643314
-57773.04336465112,-3527.429460540785
-57759.26616793043,-3506.7712134511794
-57781.11424985949,-3513.0877727707766
-57836.71497577723,-3544.1749210327075
-57920.32296467453,-3596.922336340069
-58023.35668329203,-3667.451600596926
-58136.069880480434,-3751.098633070458
-58249.41870847355,-3842.4381583760846
-58356.58835701502,-3935.5120770279336
-58453.75819469359,-4024.3357741228656
-58539.96602505624,-4103.644661984233
-58616.25855833716,-4169.7377309227795
-58684.55178888018,-4221.202939326572
-58746.67398185996,-4259.292043458416
-58803.91254878942,-4287.761451378087
-58857.10717352001,-4312.108940280194
-58907.05594117441,-4338.294964022983
-58954.85702851831,-4371.2060349078765
-59001.86679426011,-4413.248196765298
-59049.19206203273,-4463.501524087486
-59096.94326945296,-4517.786870244926
-59143.70171237415,-4569.788994988259
-59186.67194761692,-4613.081212393247
-59222.753257631775,-4643.579999015968
-59250.34105354737,-4661.720858987865
-59271.22349071373,-4673.582087116951
-59291.67155895501,-4690.347489511438
-59321.888524320726,-4725.886726543133
-59373.42893646568,-4792.764406073353
-59454.91033015278,-4897.52812439311
-59567.0938327496,-5036.507594787977
-59698.91942397312,-5193.440707444982
-59826.1196872718,-5339.957027522027
-59913.51243338529,-5439.325894216489
-59921.0890923605,-5453.050958286301
-59812.84559305224,-5349.077329892965
-59566.30886693611,-5109.8029095974625
-59180.23878130093,-4737.935975704367
-58678.22406392735,-4258.594991654698
-58106.82640360108,-3716.8455920572023
-57528.31595953682,-3170.9269603543603
-57009.491454390685,-2682.4665974720738
-56609.16095610703,-2305.7412880809193
-56367.25152646865,-2078.305180948003
-56298.09700041519,-2014.99604360907
-56389.34603447742,-2106.5252494418196
-56606.4635077506,-2322.767552578529
-56901.394583056455,-2619.779985716122
-57223.01663307512,-2948.7764057953354
-57526.76133051038,-3264.962292481015
-57781.273890296405,-3534.3531507110993
-57970.99381266715,-3737.369510457163
-58094.75672809105,-3868.913898460116
-58161.5592022725,-3935.528043726003
-58185.21144601482,-3950.8630166535536
-58179.604490287245,-3930.9222913515573
-58155.805723654456,-3890.336507067423
-58121.38888004513,-3840.4024728532577
-58081.58982146802,-3788.9566530571633
-58041.31905972075,-3741.566951903293
-58006.90623440065,-3703.1857581948225
-57986.70726512031,-3679.3911716626276
-57990.24116950436,-3676.6236798446475
-58026.13139285181,-3701.283184185635
-58099.59225657113,-3758.0203146920253
-58210.37936699248,-3847.879280677892
-58351.969691189806,-3967.027744139752
-58512.33149297262,-4106.62857767204
-58676.13165412432,-4254.039672634734
-58827.784071212,-4395.099010671381
-58954.504310183045,-4516.9039695086285
-59048.564352164176,-4610.335025147676
-59108.20902970835,-4671.648546764663
-59137.10320591396,-4702.740049004366
-59142.59172487097,-4710.065568414365
-59133.348989063634,-4702.583123557675
-59117.09807021816,-4689.32700879033
-59098.97904395354,-4677.287350629975
-59080.89675030802,-4670.130222261341
-59061.86838593677,-4668.013595881711
-59039.119016446864,-4668.424532791719
-59009.51082881576,-4667.684166553106
-58970.86946053765,-4662.616555990053
-58922.87210640852,-4651.887260759666
-58867.33655012999,-4636.667853317725
-58807.93297585535,-4620.512793141217
-58749.4757234459,-4608.56603110742
-58697.009281358434,-4606.375738016156
-58654.88368627764,-4618.646663352891
-58625.94459367416,-4648.202053458116
-58610.88548266157,-4695.299357754983
-58607.75881231704,-4757.305624353903
-58611.64203664236,-4828.646973465247
-58614.49759768668,-4900.935634220504
-58605.329412221865,-4963.245116089039
-58570.78289655298,-5002.610665144265
-58496.32657420269,-5004.917832288682
-58368.06860573337,-4956.347477272191
-58175.10728106344,-4845.437153483546
-57912.12037299909,-4665.605856947191
-57581.71800557527,-4417.727482585865
-57195.9778557249,-4112.117694974195
-56776.60210339307,-3769.216008170984
-56353.309793734654,-3418.370158709181
-55960.396218743794,-3094.478100983285
-55631.800676439896,-2832.75776175552
-55395.43890484735,-2662.4741325994482
-55267.86958529367,-2600.8976345645056
-55250.47774720433,-2648.9435059999905
-55328.200048587736,-2789.750740067232
-55471.38375245364,-2990.895932063443
-55640.722119130885,-3210.1062351666374
-55794.47736523333,-3403.433321808156
-55896.56398862203,-3534.120355434374
-55923.70259597183,-3580.060610504024
-55869.90378295625,-3537.9459114214105
-55747.04788243397,-3422.934096005621
-55581.2141714715,-3263.773520805447
-55405.489025884206,-3094.5323345329616
-55250.97215329072,-2945.059523247891
-55138.3175804439,-2832.759367685796
-55072.17379472907,-2758.0230090127234
-55040.25407695689,-2704.748370997246
-55017.58416682351,-2646.0066255072384
-54975.027166715576,-2553.4420490047137
-54889.87106875056,-2407.838245904607
-54755.47778485377,-2207.7985161176402
-54587.01853995341,-1973.85105011323
-54421.22065039572,-1746.444694688578
-54309.6339513761,-1577.9589807268837
-54306.77832318565,-1520.5617505826433
-54456.12579061636,-1613.0195400367459
-54777.70994867865,-1870.0137670889442
-55260.93950813554,-2276.9755396255773
-55864.91792978313,-2792.039510503271
-56526.55350006818,-3354.806652429559
-57174.543811036136,-3899.7291754023777
-57745.583479612906,-4370.627381033831
-58198.40696996629,-4732.50598230286
-58521.80875493197,-4977.573934063565
-58734.45708947084,-5123.992303790369
-58876.67272448992,-5207.921804996586
-58996.68635302455,-5271.325037653458
-59135.50908397401,-5349.147504020756
-59314.94152735902,-5459.609304795488
-59532.26681871987,-5600.349711659077
-59763.10132143439,-5751.368875215539
-59971.33603855807,-5883.637428528981
-60122.87208750709,-5970.5150550784065
-60198.63406876683,-5998.25456103309
-60202.52902745397,-5972.134660646181
-60161.56903874747,-5916.091228656428
-60117.82973743541,-5865.713243561093
-60114.52242771221,-5856.542061586369
-60180.40606517109,-5911.139474867398
-60317.44331242296,-6028.9074939518305
-60495.78472732673,-6181.983640150229
-60658.0791126576,-6318.87903899105
-60732.37734910459,-6375.345726274887
-60650.34052500087,-6289.881170201672
-60365.84586175664,-6019.898655539438
-59868.88442422117,-5554.3047902877215
-59190.91140306197,-4919.107905094822
-58400.15562468697,-4174.478963114342
-57588.120686444825,-3403.8922953224273
-56850.823685800286,-2697.9774070853878
-56269.5724300908,-2136.979331369282
-55895.97395733359,-1775.9398920674698
-55744.48691469539,-1635.8635408943126
-55793.65400765079,-1702.4977723751358
-55994.83875615824,-1932.4160939311766
-56285.50550653635,-2264.3715349273634
-56603.27803456477,-2632.8241710438465
-56897.32029536561,-2980.3602562611864
-57134.7951042547,-3266.380456027971
-57301.819467933536,-3470.6819469618717
