Raw_IR
224810
225279
225689
226235
226770
227401
228023
228728
229421
230154
231825
232040
231994
231793
231318
231023
230761
230576
230409
230252
230245
230398
230613
230800
230964
231105
231245
231312
231323
231312
231921
232350
232862
233268
233559
233731
233859
233914
233854
233830
233776
233842
233957
234257
234700
235391
236282
237179
237765
238053
238335
238536
238702
238899
239075
239281
239491
239803
240189
240697
241847
242283
242522
242793
243005
243267
243437
243620
243714
244030
244280
244597
244899
245239
245394
245535
245597
245614
245558
244779
243083
241286
240519
240424
240703
241174
241586
242000
242260
242212
241865
241521
241008
240479
239838
239243
238772
238508
238315
237327
236681
236000
235277
234524
233766
233008
232263
231541
230843
228907
228543
228268
228041
227924
227819
227732
227615
227397
227015
225581
225236
224774
224279
223720
223062
222308
221400
220454
219575
217510
217148
216891
216729
216716
216767
217032
217309
217757
219282
219708
219879
219900
219757
219528
219217
219027
218924
218977
219811
220265
220818
221452
222055
222725
223407
224048
224652
225272
227019
227559
228057
228466
228822
229137
229376
229579
229732
229884
230353
230497
230693
230960
231305
231661
232041
232422
232793
233215
234187
234467
234656
234825
234978
235150
235313
235490
235664
235891
236503
236837
237102
237389
237629
237874
238099
238331
238566
238811
239416
239635
239652
239508
239234
238738
238111
237576
237060
236669
236205
236277
236369
236517
236642
236820
236977
237120
237232
237347
237755
237909
238061
238174
238266
238350
238363
238391
238402
238426
238585
238562
238552
238579
238633
238704
238731
238803
238861
238941
239061
239128
239162
239177
239150
239108
239056
238979
238861
238746
238596
238678
238719
238680
238615
238569
238544
238596
238849
239211
240003
240162
239977
239644
239244
238842
238481
238231
237920
237073
236857
236595
236306
236116
235947
235972
236112
236306
236525
237112
237076
237037
236872
236746
236596
236506
236410
236331
236199
236050
236054
236145
236225
236382
236463
236599
236687
236893
237065
237548
237567
237726
237815
237908
237893
237883
237761
237759
237764
238077
238294
238476
238576
238731
238834
238982
239142
239319
239418
239066
238658
238065
237498
237028
236616
236283
235991
235761
235626
235176
235151
235105
235145
235231
235298
235358
235388
235395
235306
234917
234832
234826
234853
234935
234995
235093
235104
235055
234993
234875
234747
234645
234552
234525
234563
234626
234646
234736
234795
235054
235078
235165
235256
235345
235380
235429
235474
235528
235568
235596
235573
235574
235534
235487
235457
235404
235377
235303
235137
234023
233625
233209
232755
232278
231853
231544
231337
231305
231424
231820
231866
231698
231503
231331
231257
231304
231418
231556
231482
231264
230845
230319
229693
229093
228632
228299
228056
227916
227838
228011
228255
228528
228759
228926
229037
229127
229216
229212
228678
228428
228301
228360
228729
229447
230500
231637
232646
233387
233750
233739
233915
234331
234903
235426
235759
235773
235489
235024
233497
233121
232824
232671
232738
232932
233170
233304
233313
233198
232650
232725
232935
233267
233702
234258
234778
235108
235271
235297
234834
234788
234831
234922
235078
235258
235545
235822
236132
236779
236861
236756
236614
236499
236491
236599
236778
236971
237204
237664
237645
237512
237405
237348
237392
237515
237815
238110
238322
237805
237072
236389
235668
234940
234218
233457
232809
232340
232063
232129
232160
232135
232084
231971
231851
231762
231732
231737
231719
231510
231525
231522
231627
231714
231807
231878
231900
231802
231674
231010
231000
230980
231013
230973
230974
230956
230939
230865
230844
230826
231002
231052
231063
230936
230781
230613
230546
230522
230592
230797
230841
230754
230562
230153
229548
228853
228016
227137
226286
224325
223963
223746
223681
223625
223613
223650
223696
223699
223745
223916
223952
223998
224093
224119
224153
224132
224132
224136
224206
224527
224695
224785
224876
224875
224887
224816
224837
224885
225051
225422
225586
225656
225861
226062
226304
226537
226780
227041
227323
228085
228497
228814
229103
229262
229317
229204
228917
228426
226437
225667
224947
224328
223893
223589
223472
223454
223567
223625
223818
223830
223864
223877
223933
223967
224036
224066
224101
224148
224269
224152
224073
223994
223943
223936
223986
224039
224139
224267
224595
224625
224687
224762
224892
225017
225219
225406
225593
225752
226012
226076
226131
226192
226312
226449
226612
226746
226857
226900
225768
225173
224505
223791
223133
222513
221990
221550
221206
220985
220602
220663
220780
220898
221083
221226
221328
221429
221550
221650
222150
222322
222442
222524
222567
222536
222519
222446
222389
222355
222487
222523
222611
222679
222768
222849
222945
223079
223184
223317
223802
223924
224075
224199
224320
224469
224630
224762
224934
225106
225683
225841
225936
225904
225744
225368
224916
224341
223730
223112
221657
221311
221086
220931
220903
220919
221050
221164
221364
221560
221897
222051
222204
222308
222510
222617
222782
222862
223012
223203
223378
223473
223604
223676
223850
223992
224190
224391
224650
225388
225654
225883
226144
226355
226591
226807
227079
227293
227527
228164
228322
228503
228711
228896
229154
229360
229564
229674
229670
228837
228357
227917
227484
227164
226897
226756
226681
226671
226713
227009
227227
227411
227634
227851
228098
228282
228513
228675
228898
229217
229419
229516
229624
229688
229769
229792
229835
229848
230088
230238
230420
230544
230699
230847
231008
231131
231287
231376
231661
231733
231874
231967
232082
232165
232240
232280
232361
232404
232766
232804
232842
232639
232389
232045
231688
231279
230947
230583
229955
229772
229726
229707
229718
229772
229877
229966
230121
230252
230583
230726
230827
230920
231008
231058
231090
231124
231120
231092
231026
231070
231096
231140
231220
231274
231347
231423
231502
231594
231728
231893
232010
232111
232210
232304
232383
232474
232557
232791
232906
232993
233102
233165
233295
233402
233478
233482
233346
232499
232150
231850
231563
231330
231146
231008
230949
230930
230937
231204
231302
231427
231537
231659
231791
231928
232026
232137
232243
232483
232468
232496
232515
232483
232465
232453
232431
232463
232512
232713
232820
232904
232979
233005
233084
233147
233226
233327
233399
233544
233676
233708
233798
233822
233912
233972
234022
234056
234147
234178
234233
234125
233910
233656
233349
233028
232759
232500
232091
232073
232094
232135
232205
232253
232353
232435
232565
232698
233053
233122
233199
233267
233336
233341
233354
233346
233299
233298
233302
233280
233259
233289
233341
233418
233489
233545
233583
233635
233824
233883
233946
234028
234109
234182
234247
234243
234317
234317
234482
234592
234676
234739
234847
234926
234976
234955
234869
234670
233925
233744
233552
233339
233220
233135
233117
233107
233168
233351
233500
233565
233688
233772
233866
233962
234065
234142
234219
234237
234223
234197
234176
234110
234108
234090
234101
234134
234209
234461
234530
234612
234734
234812
234949
235045
235133
235186
235260
235449
235479
235503
235585
235640
235722
235758
235866
235913
236055
236025
235882
235652
235414
235171
234969
234779
234637
234489
234390
234314
234441
234545
234677
234819
234954
235104
235205
235298
235361
235304
235360
235368
235358
235340
235333
235295
235242
235189
235019
235047
235088
235151
235211
235292
235322
235378
235433
235484
235663
235718
235771
235833
235890
235910
235940
235971
235983
236003
236173
236185
236229
236138
235978
235716
235469
235176
234914
234670
234323
234229
234247
234286
234323
234402
234489
234598
234736
234880
235225
235327
235397
235414
235421
235406
235407
235352
235318
235267
235148
235154
235169
235173
235214
235241
235302
235338
235371
235439
235548
235692
235764
235856
235937
235995
236063
236113
236149
236265
236351
236393
236461
236517
236499
236389
236154
235881
235567
234674
234444
234264
234131
234042
234025
234017
234067
234142
234240
234535
234589
234642
234694
234754
234778
234776
234789
234734
234673
234569
234465
234420
234379
234344
234332
234317
234356
234379
234407
234562
234655
234683
234707
234718
234722
234753
234794
234828
234878
234956
235024
235035
235042
235080
235104
235126
235093
234936
234695
233661
233432
233194
232970
232829
232738
232692
232740
232772
233003
233141
233260
233394
233537
233645
233735
233804
233857
233851
233819
233746
233684
233648
233603
233607
233598
233637
233661
233718
233912
233935
233997
234089
234153
234257
234300
234393
234440
234489
234694
234722
234786
234831
234864
234965
234973
235028
235094
235119
234595
234384
234106
233854
233623
233409
233300
233251
233227
233274
233456
233673
233810
233966
234098
234276
234399
234521
234577
234624
234664
234684
234714
234724
234724
234765
234801
234880
234971
235244
235366
235502
235654
235786
235933
236072
236207
236310
236403
236618
236644
236694
236732
236791
236846
236929
236971
237055
237079
237086
236863
236610
236310
236019
235729
235498
235305
235146
235059
235081
235182
235302
235419
235590
235725
235870
235985
236112
236173
236211
236193
236147
236063
236030
235978
235918
235944
235919
235925
235969
236068
236125
236167
236190
236261
236306
236375
236428
236508
236585
236591
236612
236579
236567
236570
236565
236581
236656
236777
236736
236563
236342
236021
235681
235325
235011
234730
234505
234123
234093
234133
234173
234270
234398
234503
234614
234732
234792
234961
234945
234919
234876
234832
234755
234708
234627
234581
234591
234605
234689
234760
234815
234885
234984
235011
235107
235197
235251
235357
235456
235511
235524
235573
235587
235600
235608
235581
235651
235604
235689
235652
235567
235319
235052
234667
234323
233951
233187
233091
233055
233049
233126
233249
233373
233499
233634
233696
233961
233960
233990
233943
233912
233843
233737
233690
233606
233521
233478
233479
233501
233515
233570
233594
233648
233744
233816
233891
234182
234200
234256
234290
234334
234357
234386
234405
234447
234448
234480
234510
234518
234528
234552
234503
234345
234046
233745
233377
232214
231989
231821
231739
231706
231707
231755
231822
231877
231964
232075
232175
232232
232233
232227
232215
232219
232192
232168
232118
231872
231814
231779
231776
231784
231809
231883
231918
231986
232036
232193
232179
232238
232249
232303
232334
232386
232418
232432
232434
232556
232580
232639
232723
232826
232923
233009
233074
233080
232964
232023
231593
231207
230850
230580
230358
230251
230219
230248
230325
230711
230861
231016
231128
231239
231321
231414
231435
231503
231505
231334
231357
231393
231396
231454
231540
231600
231676
231802
231923
232201
232354
232522
232675
232815
232974
233093
233199
233315
233453
233814
233936
234083
234247
234389
234521
234661
234772
234885
235043
235210
234973
234699
234392
234051
233755
233540
233410
233370
233338
233610
233674
233779
233864
234027
234188
234360
234507
234628
234698
234709
234744
234772
234810
234887
234955
234986
235019
235038
235045
235295
235428
235516
235622
235694
235685
235633
235552
235535
235560
235570
235635
235592
235545
235495
235471
235471
235466
235441
235349
235366
235384
235428
235482
235507
235409
235168
234822
234382
233181
232930
232760
232676
232647
232681
232739
232813
232906
232982
233219
233256
233347
233452
233485
233548
233584
233583
233594
233604
233713
233713
233790
233887
233979
234070
234146
234252
234302
234394
234597
234731
234769
234858
234906
234970
235030
235069
235126
235203
235341
235476
235502
235573
235634
235687
235774
235883
235976
236092
236225
236388
236429
236432
236261
235987
235538
235064
234582
233615
233541
233504
233537
233640
233680
233746
233737
233766
233817
233950
233941
233980
234005
233990
233913
233893
233829
233775
233721
233628
233550
233539
233555
233615
233673
233769
233819
233897
233930
234155
234163
234155
234174
234179
234159
234181
234178
234251
234284
234364
234406
234411
234382
234413
234409
234444
234476
234535
234572
234575
234622
234642
234638
234667
234630
234462
234072
233615
231855
231483
231132
230912
230760
230665
230571
230552
230534
230523
230406
230398
230326
230364
230353
230373
230371
230359
230331
230309
230278
230304
230301
230371
230410
230574
230649
230782
230891
231037
231409
231426
231432
231475
231443
231470
231482
231546
231589
231639
231783
231942
232030
232174
232264
232413
232488
232611
232708
232830
233063
233254
233348
233472
233550
233694
233771
233922
234050
234238
234078
233829
233381
232934
232458
232085
231794
231609
231473
231500
231534
231595
231617
231618
231619
231647
231592
231575
231537
231460
231361
231353
231310
231298
231253
231251
231206
231200
231176
231365
231349
231385
231372
231428
231482
231574
231672
231801
231876
232063
231981
232012
231983
232061
232112
232269
232330
232440
232477
232479
232527
232607
232646
232747
232806
232867
232876
232896
232900
232953
233039
233044
233043
233085
233061
233067
233039
233083
232628
232263
231646
231059
230421
229897
229439
229147
228915
228864
228932
228999
228992
229010
228967
228947
228911
228913
228892
228901
228735
228672
228583
228576
228536
228526
228515
228541
228563
228662
229032
229110
229172
229278
229330
229404
229444
229499
229491
229564
229615
229626
229607
229659
229661
229734
229732
229808
229824
229873
229929
230060
230096
230234
230286
230440
230517
230670
230753
230900
231008
231191
231229
231334
231395
231535
231662
231827
231945
232404
232624
232784
232776
232622
232257
231884
231410
230980
230571
230035
230048
230172
230293
230516
230695
230935
231063
231232
231311
231764
231902
232088
232174
232242
232229
232240
232258
232347
232433
232863
232881
233049
233138
233303
233446
233609
233723
233877
233962
234205
234293
234405
234479
234607
234640
234744
234771
234857
234887
235075
235163
235221
235300
235443
235527
235668
235743
235880
235952
236096
236224
236312
236382
236452
236498
236579
236607
236696
236807
236940
237054
237152
237159
236949
236565
236087
235543
235045
233956
233826
233689
233772
233821
233961
234111
234295
234406
234506
234662
234714
234730
234778
234802
234857
234846
234875
234885
235002
235267
235348
235393
235526
235587
235710
235764
235885
235993
236148
236465
236612
236638
236712
236757
236854
236901
237013
237044
237181
237519
237803
237995
238214
238329
238447
238485
238622
238710
238923
239270
239514
239707
239980
240160
240464
240613
240865
241033
241320
241041
240516
239910
239385
238983
238819
238686
238755
238845
239586
239772
240049
240248
240418
240561
240696
240814
240981
241087
241488
241476
241588
241611
241720
241786
241942
242077
242283
242411
242921
243022
243127
243228
243356
243432
243517
243598
243723
243780
243992
244068
244129
244145
244198
244246
244350
244398
244479
244540
244705
244831
244879
244884
244934
244937
245048
245078
245156
245293
245409
245410
245470
245464
245523
245576
245677
245677
245640
244222
243548
242831
242212
241733
241506
241394
241440
241466
241621
241965
241950
241824
241728
241623
241650
241624
241675
241609
241535
240884
240684
240538
240494
240428
240477
240428
240414
240315
240276
240370
240579
240720
240936
240987
240889
240658
240415
240171
240102
240245
240420
240517
240542
240493
240463
240402
240418
240382
240449
240226
240290
240312
240410
240444
240518
240534
240554
240497
240687
240768
240869
240952
240978
240889
240637
240152
239692
239225
238205
237891
237671
237439
237327
237257
237339
237413
237551
237630
237795
237796
237900
237928
237962
237883
237857
237709
237632
237545
237529
237504
237593
237600
237691
237664
237711
237700
237775
237786
237889
237957
238021
238028
238088
238082
238137
238099
238125
238103
238093
238133
238180
238162
238196
238205
238238
238252
238334
238378
238333
238291
238272
238152
238085
237994
237964
237916
237911
237883
237825
237690
237390
236893
236397
235722
235104
234499
233964
233425
232058
231528
231049
230564
230121
229568
229044
228350
227586
226703
224261
223449
222818
222166
221746
221405
221138
220884
220710
220641
220848
220945
221046
221070
221127
221191
221458
221942
222662
223461
226197
227220
228217
229097
229973
230726
231484
232110
232727
233234
234540
234984
235377
235629
235948
236184
236479
236733
236968
237580
237865
238056
238259
238437
238651
238846
239054
239136
239084
238042
237701
237473
237389
237391
237548
237764
238068
238397
238797
239681
239913
240094
240305
240431
240577
240670
240724
240718
240737
240640
240636
240616
240718
240746
240855
240926
241007
241067
241161
241363
241473
241544
241611
241626
241683
241710
241760
241752
241804
241869
241980
241977
242055
242087
242209
242298
242378
242451
242725
242854
242981
243055
243164
243209
243329
243370
243472
243539
243846
243866
243778
243560
243186
242687
242203
241794
241543
241355
241607
241800
242107
242391
242675
242928
243139
243291
243457
243570
243947
243927
243979
243916
243901
243789
243793
243746
243787
243801
244039
244221
244310
244409
244500
244561
244683
244747
244843
244905
245035
245166
245221
245266
245301
245328
245392
245405
245430
245521
245615
245710
245757
245772
246022
245998
246013
245980
245971
245879
245889
245882
245940
245972
245984
245903
245657
245098
244411
242692
242273
242026
241896
241828
241840
241911
242027
242164
242345
242685
242712
242766
242750
242725
242666
242524
242366
242180
241996
241682
241596
241565
241542
241529
241562
241566
241585
241639
241712
241918
242024
242061
242186
242276
242342
242442
242568
242656
242730
242819
242960
243056
243161
243244
243337
243418
243501
243603
243733
243931
244128
244217
244294
244357
244433
244491
244552
244579
244628
243517
243032
242556
242176
241904
241806
241810
241972
242185
242491
243588
243941
244242
244511
244716
244938
245092
245208
245288
245362
245313
245219
245165
245117
245086
245106
245091
245096
245088
245107
245248
245241
245259
245282
245283
245285
245258
245265
245242
245261
245231
245039
244721
244320
243872
243487
243180
243079
243007
242910
242454
242328
242176
242129
242061
242000
241940
241881
241810
241762
241571
241345
240949
240501
240024
239586
239150
238774
238424
238187
237701
237729
237705
237741
237783
237848
237937
238036
238109
238163
237740
237563
237327
237061
236751
236453
236170
235871
235581
234744
234480
234257
234035
233821
233601
233404
233189
232990
232770
232266
232130
232011
231840
231724
231535
231422
231267
231167
231016
230743
230609
230567
230525
230580
230655
230786
230902
231048
231153
231438
231487
231653
231743
231677
231473
231181
230794
230415
230023
229406
229288
229146
229235
229446
229662
229946
230235
230566
230828
231531
231691
231782
231819
231864
231802
231776
231756
231754
231765
231810
231885
231941
231975
232054
232096
232155
232228
232277
232324
232336
232455
232479
232496
232535
232544
232560
232549
232566
232574
232580
232662
232705
232714
232751
232786
232862
232917
233031
233100
233367
233497
233629
233778
233948
233984
233879
233617
233324
233040
232612
232591
232746
232961
233286
233605
233969
234328
234642
234884
235339
235371
235410
235345
235264
235152
235074
234996
234965
234942
234986
234921
234956
234969
235019
235042
235078
235078
235059
235080
235192
235205
235240
235197
235191
235142
235090
235018
234947
234833
234464
234376
234273
234181
234130
234000
233965
233878
233858
233791
233636
233655
233616
233592
233618
233618
233627
233550
233416
233081
231654
231282
230900
230579
230319
230138
230032
229977
230003
230249
230403
230529
230689
230808
230944
231045
231094
231139
231156
231137
231180
231207
231281
231358
231507
231614
231802
231981
232177
232858
233014
233189
233372
233551
233764
233969
234172
234368
234575
235045
235185
235300
235479
235650
235871
236104
236391
236695
237027
237918
238096
238331
238557
238752
238999
239198
239417
239603
239815
240091
239910
239437
238856
238356
237964
237655
237566
237578
237730
238483
238853
239165
239476
239738
239967
240150
240353
240469
240602
240646
240703
240666
240579
240559
240544
240538
240601
240665
240905
241049
241190
241322
241488
241645
241823
241993
242183
242303
242691
242809
242906
242992
243077
243137
243225
243315
243393
243467
243640
243599
243558
243504
243471
243456
243477
243458
243471
243453
243519
243317
242967
242341
241581
240960
240423
239990
239820
239788
240282
240466
240691
240905
241089
241266
241410
241494
241583
241561
241216
241009
240859
240760
240665
240615
240652
240681
240804
240937
241265
241431
241570
241695
241827
241945
242058
242140
242182
242254
242475
242600
242699
242761
242851
242883
242934
242992
242996
243044
243098
243297
243383
243456
243595
243688
243768
243864
243960
244067
243837
243520
242898
242197
241614
241148
240823
240636
240649
240766
241329
241521
241747
241936
242117
242286
242407
242510
242568
242544
242367
242247
242166
242087
242039
242035
242065
242140
242215
242334
242667
242716
242774
242828
242964
242992
243074
243155
243242
243289
243510
243514
243532
243544
243566
243577
243628
243674
243721
243734
243831
243838
243907
243967
244011
244080
244134
244164
244211
244256
244057
243669
243032
242345
241722
241194
240799
240532
240430
240438
240898
241187
241411
241586
241753
241896
241995
242130
242222
242263
242071
242071
241968
241875
241806
241772
241717
241728
241790
241970
242107
242186
242271
242348
242417
242473
242533
242543
242550
242429
242402
242283
242175
242064
241991
241890
241827
241775
241709
241394
241245
241105
240995
240874
240830
240740
240669
240617
240529
240239
240077
239932
239694
239294
238869
238413
237980
237538
237124
236232
236067
236037
236063
236097
236178
236266
236284
236289
236321
236272
236167
236006
235884
235737
235642
235514
235486
235399
235341
235246
235321
235284
235272
235233
235205
235293
235536
235871
236318
238123
238725
239162
239529
239839
240106
240344
240586
240805
241051
241543
241771
241948
242104
242178
242287
242331
242411
242482
242632
242737
242819
242872
242962
243022
242985
242702
242145
241354
239273
238921
238687
238555
238511
238558
238660
238802
238960
239134
239618
239711
239808
239877
239904
239863
239782
239649
239526
239415
239222
239139
239157
239223
239288
239375
239472
239552
239674
239793
240184
240207
240260
240308
240345
240349
240302
240322
240297
240264
240274
240292
240267
240239
240229
240188
240166
240144
240091
240025
239929
240004
240020
240020
240071
240109
240115
240094
239988
239566
237859
237425
237016
236703
236460
236345
236291
236297
236366
236483
236677
236824
236920
236986
237047
237056
237080
237044
236984
236701
236689
236658
236651
236678
236661
236654
236688
236741
236794
237046
237152
237228
237254
237293
237325
237329
237320
237302
237262
237122
237040
236974
236942
236846
236768
236681
236589
236528
236505
236489
236408
236383
236344
236281
236290
236316
236352
236426
236512
236391
236060
235616
235102
234600
233998
233395
232869
232400
232016
231159
230941
230648
230380
230142
229942
229732
229514
229295
229109
228278
228022
227685
227396
227087
226799
226515
226319
226086
225958
225717
225906
225939
226039
226105
226210
226271
226387
226461
226639
226746
226854
226947
227037
227145
227287
227368
227429
227498
227512
227575
227626
227671
227773
227850
227981
228085
228204
228353
228861
228995
229155
229312
229438
229475
229363
229044
228607
228104
226446
226003
225720
225557
225516
225556
225691
225878
226111
226320
226958
227031
227136
227231
227297
227261
227235
227185
227137
227038
226975
226988
227014
227049
227108
227176
227250
227331
227405
227519
227900
228055
228248
228409
228575
228715
228837
228917
229001
229058
229252
229467
229595
229733
229878
230018
230153
230253
230371
230784
231005
231132
231301
231458
231576
231730
231894
232038
232164
231549
231103
230640
230215
229820
229499
229249
229056
228986
229022
229452
229656
229825
230029
230233
230432
230562
230672
230688
230668
230423
230303
230233
230164
230173
230184
230222
230306
230370
230508
230815
230955
231098
231206
231320
231438
231512
231563
231653
231758
231863
231970
232019
232035
232090
232150
232191
232255
232331
232475
232590
232653
232711
232771
232821
232885
232975
233021
233122
233433
233433
233273
232921
232519
232053
231635
231240
230912
230651
230457
230511
230683
230864
231042
231225
231368
231480
231582
231676
231837
231736
231682
231600
231536
231431
231386
231375
231359
231356
231435
231544
231662
231781
231907
232001
232113
232214
232300
232362
232416
232484
232478
232488
232499
232507
232537
232588
232646
232750
232888
233035
233136
233197
233259
233340
233370
233445
233485
233689
233795
233880
233946
233945
233727
233356
232858
232370
231866
230666
230319
230101
229984
229966
230009
230127
230260
230417
230569
230957
231028
231091
231116
231039
230962
230857
230751
230641
230556
230442
230443
230469
230544
230617
230716
230790
230874
231003
231101
231347
231491
231578
231652
231711
231798
231856
231938
231962
232050
232049
232212
232262
232280
232332
232403
232486
232554
232627
232779
232850
232941
233000
233096
233148
233231
233263
233177
232917
231650
231236
230848
230527
230284
230095
230013
230019
230096
230249
230835
230980
231121
231253
231355
231496
231519
231545
231500
231445
231255
231172
231148
231168
231193
231262
231319
231477
231558
231692
231971
232111
232155
232243
232257
232295
232239
232222
232176
232145
232022
232089
232069
232104
232127
232159
232171
232185
232156
232197
232103
232207
232226
232279
232301
232390
232427
232509
232564
232510
232221
231828
231316
230756
230196
229678
229207
228838
228565
228442
228515
228681
228834
229041
229201
229390
229518
229672
229757
229805
229692
229607
229518
229395
229335
229289
229269
229293
229343
229672
229720
229891
230011
230181
230307
230402
230515
230564
230644
230778
230885
230965
231048
231138
231199
231253
231281
231331
231382
231492
231613
231671
231733
231802
231882
231948
232006
232074
232184
232327
232418
232364
232171
231841
231454
231023
230618
230211
229306
229213
229169
229184
229223
229363
229493
229674
229843
230046
230447
230529
230546
230516
230426
230320
230222
230114
230018
229943
229983
230013
230119
230223
230331
230477
230600
230736
230820
230910
231151
231198
231257
231313
231365
231402
231456
231500
231518
231554
231676
231644
231695
231729
231792
231864
231912
231975
232031
232116
232273
232403
232474
232510
232531
232372
232105
231725
231300
230845
229609
229370
229178
229063
229066
229161
229286
229480
229667
229855
230234
230446
230536
230563
230569
230510
230448
230412
230376
230191
230221
230243
230276
230343
230446
230564
230703
230846
230965
231258
231378
231460
231535
231588
231631
231667
231691
231713
231742
231829
231819
231833
231881
231915
231969
232024
232068
232123
232147
232341
232379
232450
232513
232609
232639
232719
232698
232541
232233
231007
230561
230193
229906
229657
229503
229449
229460
229528
229660
230241
230386
230522
230669
230802
230880
230950
230909
230877
230797
230618
230638
230648
230668
230725
230774
230858
230945
231046
231137
231463
231633
231777
231920
232032
232155
232256
232295
232360
232422
232472
232620
232696
232762
232839
232913
232951
233019
233046
233144
233258
233321
233381
233451
233524
233579
233655
233715
233763
233026
232642
232212
231829
231460
231185
230946
230820
230712
230760
231069
231179
231317
231466
231566
231645
231712
231777
231794
231794
231564
231458
231376
231327
231281
231296
231270
231319
231359
231443
231727
231774
231870
231983
232063
232136
232220
232286
232371
232446
232574
232639
232665
232731
232750
232794
232839
232870
232894
232946
233099
233186
233261
233314
233372
233483
233550
233623
233703
233782
233264
232967
232543
232156
231794
231521
231299
231209
231154
231227
231472
231700
231835
232010
232160
232291
232384
232495
232507
232454
232385
232362
232283
232276
232264
232283
232303
232371
232414
232831
232884
232999
233085
233221
233301
233409
233435
233550
233587
233765
233729
233747
233738
233768
233762
233812
233834
233871
233908
234093
234094
234142
234200
234274
234329
234408
234480
234541
234573
234421
234051
233631
233195
232796
232412
232105
231868
231732
231628
231753
231907
232045
232174
232314
232399
232511
232586
232661
232684
232580
232565
232462
232402
232374
232291
232284
232248
232264
232313
232379
232565
232644
232720
232780
232868
232921
233001
233062
233127
233196
233271
233307
233331
233346
233394
233411
233462
233508
233561
233732
233825
233938
234004
234111
234171
234245
234318
234385
234397
234432
234139
233770
233346
232925
232525
232167
231829
231622
231472
231444
231456
231580
231659
231748
231799
231881
231942
232039
232061
232134
232012
232028
231990
232058
232083
232167
232220
232324
232390
232738
232762
232875
232880
232924
232906
232909
232853
232842
232758
232802
232871
232985
233061
233237
233329
233504
233611
233769
233870
234267
234512
234775
235004
235354
235690
236011
236250
236544
236855
237563
237759
237790
237503
237177
236740
236430
236137
236048
235955
236058
236083
236178
236212
236290
236321
236403
236447
236548
236833
236908
236894
236838
236760
236714
236615
236563
236460
236435
236484
236482
236486
236537
236572
236628
236869
236975
237111
237237
237396
237383
237370
237379
237377
237363
237350
237361
237376
237421
237527
237514
237538
237542
237579
237591
237582
237579
237590
237626
237600
237639
237603
237544
237336
236998
236514
235973
235315
234532
231868
231111
230703
230530
230376
230257
230125
230008
229893
229815
229430
229397
229170
228970
228749
228603
228487
228459
228369
228134
228213
228332
228479
228633
228762
228928
229076
229273
229438
229788
229849
229889
229937
229960
229972
229990
229975
229980
229984
230078
230063
230090
230084
230117
230104
230177
230218
230342
230409
230711
230791
230898
231015
231116
231184
231085
230853
230495
230088
229032
228773
228623
228620
228686
228797
229003
229220
229495
229755
230359
230495
230634
230737
230812
230813
230797
230705
230639
230521
230265
230296
230347
230398
230489
230579
230705
230808
230955
231115
231396
231544
231602
231628
231671
231691
231731
231759
231822
231875
231885
231979
232003
231996
232026
232034
232085
232098
232179
232325
232426
232492
232613
232746
232889
233013
233150
233080
232888
231510
231037
230657
230460
230368
230413
230541
230779
231069
231434
232478
232781
233052
233318
233538
233804
233942
234099
234179
234272
234525
234625
234687
234842
235008
235253
235450
235702
235915
236191
237155
237440
237716
238019
238262
238564
238807
239109
239316
239592
240182
240455
240587
240767
240880
241037
241124
241262
241339
241478
241767
241913
241993
242103
242181
242287
242358
242430
242476
242554
241545
240986
240341
239794
239293
238970
238777
238725
238770
239254
239512
239733
239888
240023
240076
240126
240130
240139
240134
240068
240084
240066
240098
240097
240120
240161
240268
240353
240462
240992
241133
241294
241439
241595
241721
241863
241958
242064
242135
242314
242317
242419
242468
242523
242632
242695
242776
242824
242894
243168
243205
243288
243351
243437
243475
243531
243591
243651
243740
243988
243961
243820
243442
242947
242340
241849
241400
241106
240936
241097
241360
241623
241860
242063
242302
242480
242631
242809
242945
243249
243338
243331
243326
243300
243260
243275
243284
243361
243515
243743
243877
244002
244114
244243
244346
244428
244526
244629
244755
244810
244830
244871
244946
245057
245177
245277
245345
245359
245278
245290
245268
245277
245280
245301
245360
245470
245579
245700
246230
246274
246307
246289
246036
245496
244718
243995
243336
242719
241484
241316
241229
241184
241145
241097
241041
241005
240954
240954
240848
240666
240447
240169
239857
239541
239191
238886
238599
238314
237705
237603
237450
237339
237217
237069
236950
236870
236768
236701
236556
236617
236625
236626
236626
236618
236612
236600
236513
236499
236374
236528
236570
236600
236674
236768
236920
237111
237257
237482
237793
237975
238034
237992
237733
237427
237072
236780
236495
236254
235860
235906
235962
236096
236231
236379
236559
236696
236799
236901
237159
237156
237148
237105
236991
236853
236747
236630
236559
236502
236355
236251
236197
236220
236195
236192
236161
236163
236170
236163
236163
236108
236037
236007
235981
235983
235972
235996
235976
236010
236167
236222
236264
236359
236432
236497
236534
236560
236581
236634
236703
236773
236661
236430
236069
235574
235036
234522
234005
233545
232537
232514
232562
232677
232795
232896
232954
233039
233112
233225
233189
233209
233144
233103
233106
233102
233062
233030
233012
233223
233361
233453
233499
233600
233692
233836
233906
234019
234114
234434
234616
234747
234841
234919
234990
235112
235231
235344
235435
235768
235842
235950
236008
236052
236061
236077
236108
236196
236277
236578
236657
236753
236793
236661
236373
235959
235553
235137
234750
233889
233712
233687
233721
233788
233893
233992
234053
234072
234061
234087
234045
233989
233898
233758
233602
233507
233454
233429
233392
233224
233324
233433
233569
233676
233790
233916
234015
234130
234196
234292
234418
234478
234462
234501
234517
234521
234531
234565
234587
234612
234779
234925
235030
235111
235164
235218
235301
235419
235660
235769
235899
236114
236324
236536
236652
236566
236303
235955
235037
234824
234704
234634
234711
234792
234947
235153
235375
235593
236149
236162
236303
236363
236478
236498
236495
236456
236431
236360
236331
236306
236349
236350
236373
236370
236427
236459
236535
236579
236797
236805
236888
236954
237004
237028
237049
237060
237132
237134
237224
237294
237335
237359
237427
237434
237480
237496
237573
237654
237865
237958
238051
238118
238257
238361
238469
238484
238392
238123
236756
236437
236130
235899
235764
235691
235662
235697
235790
235985
236337
236478
236537
236562
236634
236701
236742
236745
236771
236729
236738
236728
236743
236752
236772
236795
236890
236954
237072
237339
237415
237525
237673
237729
237797
237801
237870
237929
238009
238143
238110
238167
238204
238241
238290
238309
238345
238349
238368
238531
238521
238548
238596
238644
238699
238782
238881
238984
239070
239288
239200
238893
238375
237885
237410
237038
236735
236515
236367
236328
236511
236659
236791
236892
237000
237080
237119
237132
237177
237222
237223
237118
237062
237014
236980
236993
236985
236980
236993
237088
237237
237332
237405
237507
237602
237689
237761
237806
237906
237985
238027
238056
238092
238104
238123
238128
238144
238179
238252
238298
238359
238417
238452
238464
238506
238553
238617
238677
238843
238916
239028
239078
239121
239158
239096
238819
238343
237817
236499
236144
235898
235735
235683
235650
235683
235728
235837
235932
236263
236232
236269
236297
236308
236291
236290
236206
236140
236019
235746
235638
235555
235481
235475
235447
235428
235425
235484
235510
235625
235681
235729
235746
235767
235784
235806
235818
235835
235840
235908
235996
236064
236094
236186
236207
236266
236323
236434
236492
236792
237005
237134
237260
237426
237566
237713
237835
237985
237957
237697
237264
236895
236520
236212
235988
235841
235793
235773
236076
236222
236331
236475
236568
236677
236756
236889
237006
237119
237317
237359
237378
237353
237301
237332
237407
237456
237543
237669
238122
238295
238488
238724
238969
239217
239440
239652
239881
240097
240639
240798
240913
241091
241202
241413
241556
241758
241904
242147
242589
242760
242845
243049
243130
243313
243448
243606
243711
243865
244110
244288
244320
244267
243999
243491
242818
242223
241639
241141
240469
240661
240819
241004
241176
241410
241586
241778
241911
242071
242245
242360
242300
242159
242012
241862
241736
241697
241667
241867
242022
242206
242382
242595
242824
243042
243233
243428
243595
244037
244185
244298
244390
244523
244594
244651
244712
244795
244869
245083
245134
245188
245268
245317
245372
245447
245483
245536
245607
245875
245866
245939
246003
246089
246124
246145
246079
245926
245637
244240
243723
243487
243289
243279
243328
243486
243683
243938
244152
244749
244878
245031
245105
245229
245306
245414
245417
245469
245475
245526
245590
245643
245641
245742
245813
245895
245977
246055
246126
246294
246412
246490
246557
246590
246651
246699
246701
246754
246795
246841
246923
246950
246978
247046
247071
247110
247135
247161
247205
247269
247291
247341
247363
247398
247430
247485
247500
247534
247190
247004
246675
246337
245992
245682
245437
245338
245349
245489
246043
246154
246281
246427
246525
246615
246670
246735
246742
246798
246794
246774
246757
246775
246776
246826
246820
246864
246921
246997
247234
247257
247290
247363
247390
247455
247475
247525
247550
247591
247601
247634
247647
247708
247718
247764
247763
247823
247803
247849
247845
247972
247971
248027
248051
248085
248104
248158
248157
248236
247953
247847
247579
247330
247037
246805
246575
246494
246440
246563
246921
247140
247286
247345
247430
247507
247553
247625
247662
247621
247629
247604
247586
247576
247598
247582
247597
247634
247676
247827
247884
247940
247985
248014
248062
248136
248150
248174
248184
248255
248233
248236
248261
248280
248280
248292
248301
248328
248324
248441
248384
248454
248483
248533
248539
248558
248598
248606
248616
248297
247976
247678
247327
246989
246721
246571
246566
246665
246810
247347
247513
247612
247705
247736
247818
247866
247903
247935
247933
247900
247907
247904
247902
247918
247920
247983
248026
248052
248089
248197
248327
248392
248403
248457
248473
248523
248556
248578
248619
248569
248624
248636
248655
248676
248692
248707
248706
248742
248764
248812
248842
248879
248899
248934
248969
248973
248968
248919
248237
247902
247540
247189
246869
246709
246689
246745
246876
247074
247532
247567
247595
247662
247668
247687
247728
247747
247713
247706
247675
247621
247620
247644
247672
247741
247778
247844
247926
247991
248207
248238
248275
248336
248346
248391
248371
248405
248438
248435
248424
248495
248477
248520
248524
248523
248531
248591
248599
248662
248743
248826
248863
248904
248930
248975
248996
248963
248864
248679
247735
247455
247178
246978
246929
246997
247120
247263
247421
247692
247774
247792
247809
247867
247876
247920
247954
247972
247982
247959
247970
247989
247997
248049
248057
248104
248158
248219
248294
248452
248481
248545
248589
248622
248606
248663
248664
248690
248696
248774
248755
248779
248820
248821
248865
248889
248932
248968
249009
249157
249178
249206
249214
249255
249268
249269
249254
249203
249047
248337
248060
247810
247643
247569
247577
247667
247798
247948
248076
248313
248377
248400
248437
248443
248469
248482
248456
248440
248407
248324
248348
248357
248379
248409
248441
248480
248539
248574
248667
248701
248795
248804
248834
248854
248873
248871
248882
248881
248848
248897
248912
248941
248957
248964
248973
248984
249028
249048
249141
249151
249168
249187
249204
249180
249195
249139
248965
248762
247392
246847
246414
246135
245913
245780
245770
245773
245899
246021
246435
246493
246538
246594
246646
246702
246670
246638
246546
246413
246032
245880
245807
245805
245815
245882
245911
246019
246073
246176
246402
246473
246549
246638
246700
246718
246770
246813
246842
246886
246971
247020
247074
247098
247141
247166
247217
247238
247325
247364
247463
247582
247664
247702
247681
247545
247280
246823
246252
245692
244384
244234
244207
244230
244354
244524
244728
244885
245088
245379
245468
245530
245577
245631
245670
245627
245601
245546
245498
245399
245326
245299
245314
245307
245316
245343
245381
245397
245437
245471
245404
245321
245257
245174
245093
244986
244949
244891
244789
244497
244383
244301
244262
244164
244106
244020
243936
243870
243853
243731
243642
243521
243362
243034
242504
241885
241257
240696
240208
239098
238965
238859
238823
238801
238821
238848
238838
238857
238817
238631
238653
238657
238634
238611
238567
238550
238548
238534
238566
238545
238676
238746
238773
238875
238962
239091
239222
239323
239589
239678
239711
239710
239714
239703
239699
239687
239694
239676
239671
239676
239665
239668
239612
239581
239576
239538
239549
239578
239818
239897
239941
239935
239752
239401
238959
238528
238120
237759
237132
237055
237082
237168
237262
237328
237443
237495
237567
237602
237771
237798
237894
237993
238086
238124
238204
238252
238304
238363
238571
238622
238749
238845
238963
239086
239246
239443
239629
239805
240282
240449
240625
240774
240926
241064
241220
241362
241504
241652
242001
242119
242247
242375
242529
242661
242834
242982
243179
243339
243771
243970
244011
243865
243460
242801
242142
241494
240941
240260
240324
240409
240589
240751
240927
241114
241280
241389
241435
241579
241708
241788
241878
241908
241982
242006
242073
242123
242166
242474
242569
242711
242872
243021
243182
243343
243500
243674
243831
244273
244349
244441
244554
244641
244735
244797
244895
244945
245053
245274
245305
245348
245437
245459
245571
245605
245725
245764
245874
246095
246148
246095
245908
245496
244871
244110
243532
242980
242592
242291
242506
242715
242968
243190
243423
243581
243701
243761
243846
244081
244298
244426
244523
244635
244732
244811
244889
244964
245063
245242
245418
245506
245611
245746
245866
245984
246084
246181
246400
246532
246593
246643
246692
246771
246829
246878
246933
246979
247110
247152
247223
247251
247308
247368
247415
247469
247524
247569
247738
247748
247811
247871
247892
247753
247573
247189
246777
246193
244872
244701
244704
244768
244935
245031
245198
245299
245412
245450
245532
245448
245479
245468
245495
245460
245476
245391
245370
245320
245255
245183
245252
245283
245356
245420
245512
245585
245694
245763
246043
246137
246215
246285
246358
246407
246476
246497
246560
246594
246648
246655
246723
246725
246769
246821
246828
246856
246858
246898
246830
246888
246936
246964
246978
247041
247058
247092
247096
246159
245432
244639
243942
243316
242828
242556
242410
242416
242503
242898
243108
243228
243351
243413
243467
243454
243508
243559
243626
243631
243588
243543
243500
243441
243398
243368
243389
243428
243453
243687
243768
243851
243952
244035
244130
244209
244284
244380
244462
244685
244723
244763
244851
244863
244943
245005
245064
245101
245175
245331
245380
245383
245427
245446
245510
245541
245609
245655
245739
245883
245956
245851
245539
244943
244149
243368
242641
242067
241735
241301
241423
241523
241638
241800
241973
242090
242224
242293
242380
242499
242647
242637
242594
242486
242415
242328
242286
242231
242242
242344
242437
242510
242645
242738
242874
242957
243076
243157
243390
243479
243573
243605
243632
243684
243696
243731
243763
243746
243805
243820
243882
243900
243942
243958
243986
243993
244058
244071
244270
244280
244339
244396
244462
244520
244552
244568
244509
244197
242072
241398
240939
240574
240301
240099
239985
239895
239890
239884
240045
240043
240112
240073
240125
240094
240127
240095
240100
240007
239769
239743
239654
239618
239619
239613
239660
239681
239774
239826
240016
240110
240206
240274
240365
240400
240499
240528
240615
240656
240690
240790
240844
240865
240946
240957
241015
241076
241148
241203
241223
241262
241315
241305
241342
241395
241499
241585
241717
241797
242133
242165
242104
241718
241122
240480
239979
239526
239183
238904
238636
238598
238701
238786
238905
238975
239108
239159
239237
239274
239471
239442
239458
239423
239382
239324
239299
239246
239250
239201
239362
239357
239459
239539
239650
239724
239851
239908
240032
240101
240499
240562
240673
240728
240817
240865
240927
240997
241054
241106
241247
241284
241356
241399
241490
241529
241569
241627
241705
241782
242014
242136
242220
242292
242396
242481
242501
242358
241976
241342
239712
239493
239321
239229
239222
239265
239332
239486
239705
240002
240997
241329
241603
241811
242052
242202
242339
242359
242342
242103
242041
241889
241739
241564
241424
241266
241148
241045
240982
240875
240824
240801
240797
240755
240780
240737
240739
240739
240685
240627
240545
240520
240517
240487
240474
240427
240419
240405
240384
240398
240361
240349
240380
240402
240423
240451
240529
240550
240571
239969
239503
239045
238600
238199
237824
237524
237291
237135
237032
237053
237228
237319
237409
237514
237591
237681
237738
237819
237865
237703
237665
237575
237473
237424
237340
237329
237307
237320
237374
237457
237599
237678
237766
237801
237936
238015
238091
238197
238286
238360
238411
238418
238488
238533
238592
238684
238706
238746
238875
238912
238926
238927
238976
239030
239064
239125
239186
239269
239400
239201
238888
238432
237935
237477
237073
236665
236359
236156
235988
235991
236063
236171
236285
236370
236455
236540
236604
236643
236809
236711
236710
236622
236571
236516
236474
236401
236369
236345
236447
236454
236566
236627
236702
236779
236860
236903
237010
237069
237253
237318
237343
237365
237412
237411
237430
237449
237457
237491
237477
237553
237624
237640
237689
237726
237782
237829
237879
237912
237984
238005
237809
237440
237026
236574
236137
235746
235430
235178
234820
234861
234932
235021
235097
235173
235311
235365
235427
235623
235700
235659
235577
235482
235390
235300
235189
235089
235050
234799
234763
234735
234691
234661
234716
234707
234752
234786
234871
235184
235239
235245
235317
235287
235267
235193
235097
234984
234910
234845
234866
234886
234931
234914
234932
234907
234933
234932
235024
235212
235241
235188
235095
234835
234463
234031
233622
233161
232725
231879
231814
231785
231826
231889
232045
232217
232404
232557
232722
233051
233165
233135
233086
232974
232903
232796
232748
232679
232675
232922
233169
233380
233603
233800
233953
234059
234143
234188
234251
234412
234623
234777
234966
235166
235383
235569
235746
235890
236284
236403
236506
236629
236849
237060
237348
237654
237978
238305
239289
239501
239575
239383
238937
238316
237693
237222
236867
236674
236813
237032
237344
237668
237980
238270
238513
238720
238913
239046
239494
239499
239531
239549
239534
239506
239498
239513
239589
239700
240250
240408
240600
240775
240930
241050
241166
241289
241370
241464
241613
241650
241674
241705
241728
241767
241841
241907
241981
242017
242181
242328
242410
242501
242571
242675
242792
242908
243072
243234
243214
242837
242211
241516
240842
240229
239839
239639
239582
239642
240119
240430
240623
240783
240934
241041
241173
241300
241432
241600
241634
241576
241499
241437
241376
241292
241297
241304
241370
241678
241845
241993
242103
242223
242357
242503
242645
242782
242885
243124
243166
243196
243246
243280
243329
243380
243430
243500
243549
243729
243722
243819
243881
243947
244021
244084
244148
244192
244210
243293
242453
241548
240698
240083
239692
239455
239318
239269
239311
239669
239750
239818
239881
239906
239936
239996
240035
240096
240104
239944
239925
239883
239825
239765
239759
239761
239791
239827
239880
240164
240347
240487
240616
240740
240842
240919
240966
241036
241076
241087
241194
241238
241268
241290
241332
241353
241369
241398
241412
241502
241514
241577
241661
241719
241794
241874
241965
242036
241899
241436
240765
240108
239527
239053
238685
238464
238303
238202
238422
238545
238652
238779
238832
238900
238933
238990
239027
239084
239011
238931
238840
238774
238741
238722
238722
238738
238811
238880
239123
239178
239242
239340
239406
239512
239573
239666
239713
239768
239856
239821
239858
239877
239895
239941
239971
239989
239993
240005
239990
240070
240117
240172
240222
240324
240403
240537
240622
240754
240763
240482
239925
239346
238837
238403
238059
237763
237596
237512
237512
237667
237809
237884
237948
237953
237975
237990
238034
238096
238031
238022
237974
237915
237836
237774
237731
237686
237709
237723
237860
237941
238015
238080
238176
238277
238416
238519
238642
238735
238996
239052
239136
239186
239216
239234
239239
239205
239209
239176
239170
239124
239129
239112
239157
239112
239044
238987
238884
238787
238579
238445
238243
237855
237418
236913
236408
235945
235545
235204
234860
234853
234965
235122
235286
235455
235544
235625
235627
235602
235383
235333
235303
235259
235226
235138
234976
234839
234656
234530
234286
234329
234314
234325
234316
234352
234344
234393
234385
234423
234419
234541
234505
234489
234427
234380
234286
234248
234183
234204
234073
234110
234114
234138
234154
234208
234263
234358
234400
234486
234658
234784
234848
234987
235066
235127
235121
234961
234627
234225
232990
232612
232340
232205
232102
232052
232023
232054
232076
232155
232197
232148
232084
232045
231991
231979
231846
231769
231652
231574
231343
231244
231153
231165
231118
231103
231072
231058
230969
230950
230766
230754
230810
230929
231045
231132
231198
231306
231401
231482
231290
231291
231219
231186
231125
231130
231106
231078
231010
230981
230663
230648
230592
230630
230655
230739
230741
230824
230836
230914
230908
230967
230708
230383
229889
229344
228580
228024
227514
227196
226477
226490
226394
226444
226484
226564
226623
226669
226663
226725
226772
226783
226762
226759
226739
226760
226749
226768
226738
226881
226964
227090
227182
227366
227491
227661
227773
227922
228006
228321
228331
228479
228501
228635
228737
228891
228981
229164
229266
229590
229618
229718
229761
229842
229889
229981
230058
230158
230220
230610
230641
230776
230903
231023
231123
231257
231363
231508
231598
231084
230600
230128
229618
229116
228624
228278
227997
227858
227841
228167
228352
228528
228627
228766
228826
228907
228991
229092
229120
228987
228970
228909
228849
228808
228771
228775
228805
228856
228934
229013
229110
229149
229184
229249
229295
229359
229393
229471
229607
229734
229805
229869
229886
229923
229913
229935
229931
229978
230164
230269
230348
230431
230478
230586
230661
230771
230857
230966
231222
231328
231411
231534
231607
231626
231422
231089
230604
230103
228632
228210
227936
227793
227758
227808
227922
228053
228198
228332
228585
228590
228597
228652
228662
228661
228622
228583
228498
228424
228266
228229
228210
228241
228301
228397
228482
228599
228731
228855
229224
229374
229477
229610
229669
229764
229814
229889
229920
229991
230142
230261
230339
230415
230491
230559
230595
230655
230684
230773
230841
230987
231038
231118
231183
231227
231279
231356
231407
231487
231251
230965
230465
229922
229323
228740
228199
227754
227396
227043
227133
227242
227405
227525
227636
227729
227790
227854
227913
228014
228019
227947
227861
227766
227663
227577
227482
227416
227328
227290
227298
227326
227365
227402
227422
227450
227481
227518
227534
227689
227706
227760
227810
227879
227938
228005
228067
228141
228200
228450
228411
228442
228480
228482
228473
228457
228461
228457
228448
228591
228600
228614
228633
228653
228678
228678
228569
228273
227822
225725
225051
224424
223915
223531
223288
223145
223050
223009
222983
222823
222772
222676
222549
222450
222366
222232
222085
221903
221765
221234
221208
221159
221082
221056
221029
221073
221107
221183
221289
221405
221533
221603
221671
221733
221827
221886
221952
222020
222210
222315
222399
222493
222588
222705
222794
222941
223033
223141
223483
223593
223715
223811
223902
224030
224141
224287
224428
224566
224809
224787
224731
224551
224164
223678
223078
222504
221974
221525
220837
220772
220827
220992
221181
221396
221620
221857
222076
222260
222792
222861
222937
222935
222920
222836
222718
222596
222472
222367
222384
222482
222587
222666
222748
222817
222876
222912
222956
222973
222934
222985
223005
223005
223011
223027
223072
223111
223143
223178
223319
223478
223578
223664
223718
223792
223854
223954
224049
224170
224513
224788
224997
225193
225387
225486
225404
225182
224792
223409
223052
222757
222534
222461
222495
222666
222882
223174
223458
224371
224645
224935
225149
225349
225460
225512
225533
225547
225525
225488
225428
225477
225480
225550
225604
225734
225857
226029
226152
226772
226976
227198
227418
227628
227810
228019
228187
228350
228497
228963
229023
229116
229174
229290
229350
229452
229520
229572
229649
230047
230147
230329
230470
230664
230827
230980
231087
231082
230868
229716
229346
229005
228691
228455
228296
228238
228264
228375
228509
229037
229242
229383
229516
229642
229767
229850
229895
229933
229916
229740
229816
229822
229853
229867
229925
229972
230060
230157
230280
230490
230636
230771
230878
231003
231085
231187
231216
231297
231415
231502
231545
231605
231657
231695
231717
231772
231803
231840
231967
232057
232148
232272
232356
232438
232549
232658
232715
232719
231835
231373
230930
230521
230161
229858
229627
229515
229472
229512
229962
230123
230268
230392
230456
230536
230602
230694
230739
230798
230846
230774
230749
230778
230757
230782
230800
230857
230956
231050
231411
231521
231635
231751
231840
231928
232003
232077
232145
232197
232379
232500
232545
232582
232638
232689
232745
232808
232856
232920
233077
233232
233307
233358
233451
233554
233668
233730
233762
233674
232426
232070
231707
231385
231141
230989
230870
230798
230799
230995
231157
231319
231417
231547
231677
231800
231891
231963
231966
231838
231785
231746
231708
231734
231774
231858
231967
232063
232174
232471
232532
232645
232744
232834
232899
232976
233076
233144
233179
233303
233290
233306
233329
233359
233372
233410
233432
233505
233534
233730
233734
233822
233855
233947
233996
233994
233813
233480
233077
231931
231557
231327
231160
231112
231128
231189
231289
231428
231550
231784
231849
231846
231864
231869
231888
231844
231801
231739
231712
231532
231551
231546
231580
231596
231641
231700
231744
231830
231918
232142
232289
232382
232462
232506
232547
232624
232680
232739
232807
232775
232836
232853
232891
232919
232974
233079
233150
233230
233422
233565
233635
233698
233656
233434
233082
232622
232175
231694
230694
230540
230465
230451
230522
230614
230760
230886
231032
231106
231283
231311
231331
231359
231344
231303
231252
231204
231154
231129
231077
231065
231091
231144
231222
231307
231389
231478
231527
231604
231891
231901
231967
232027
232089
232141
232174
232232
232290
232299
232325
232282
232278
232295
232308
232371
232449
232567
232662
232781
233013
233108
233081
232977
232724
232360
231986
231569
231175
230846
230177
230159
230196
230270
230395
230539
230668
230793
230850
230912
230989
231110
231155
231168
231152
231181
231166
231188
231200
231274
231295
231416
231473
231529
231600
231689
231768
231825
231877
231928
231939
231913
231871
231801
231730
231654
231567
231473
231398
230909
230744
230629
230563
230506
230481
230474
230545
230638
230735
231183
231286
231394
231476
231468
231311
231024
230676
230259
229850
228940
228767
228738
228805
228957
229153
229369
229594
229738
229878
230141
230172
230209
230248
230227
230149
230083
229987
229885
229790
229612
229555
229567
229616
229708
229811
229878
229975
230034
230096
230200
230283
230290
230373
230423
230467
230523
230568
230623
230664
230741
230802
230846
230883
230939
231023
231100
231228
231287
231345
231411
231506
231535
231487
231311
230936
230457
229922
229374
228874
227953
227931
227986
228129
228388
228684
229009
229300
229537
230055
230240
230433
230593
230735
230842
230944
230999
231049
231130
231397
231572
231736
231909
232093
232201
232300
232424
232527
232626
232838
232823
232814
232811
232856
232848
232876
232907
232888
232899
232986
233013
233083
233148
233207
233250
233317
233365
233421
233478
233699
233684
233721
233736
233692
233484
233149
232748
232296
231862
230835
230658
230587
230630
230703
230807
230960
231088
231171
231206
231201
231302
231352
231407
231444
231437
231412
231413
231396
231352
231303
231379
231426
231521
231615
231735
231848
231922
232043
232152
232319
232452
232531
232574
232610
232677
232757
232824
232892
232981
232969
233033
233044
233116
233156
233198
233267
233331
233401
233619
233740
233797
233854
233925
233971
234001
233958
233772
233394
232003
231543
231108
230761
230512
230343
230253
230275
230326
230444
230882
230954
231065
231130
231217
231295
231335
231360
231356
231345
231421
231433
231413
231406
231385
231421
231462
231539
231610
231703
231950
231930
231976
231968
231978
231959
231944
231897
231869
231840
231611
231512
231400
231327
231251
231212
231136
231089
231043
230975
230592
230442
230241
230028
229820
229631
229488
229359
229288
229230
228952
228679
228182
227561
226842
226092
225305
224611
224011
223591
223025
223152
223260
223482
223732
224032
224325
224665
225067
226401
226867
227262
227638
227989
228270
228520
228748
228921
229039
229129
229119
229067
229044
228989
228970
228960
228958
228968
228951
228938
228922
228917
228947
228974
228961
228958
228919
228859
228788
228804
228809
228858
228921
228983
229060
229168
229245
229349
229464
229768
229810
229887
229888
229737
229413
228935
228376
227752
227100
225814
225581
225519
225527
225596
225727
225854
225999
226170
226337
226698
226806
226933
226972
227025
227019
227020
226995
226983
226976
227034
227121
227172
227235
227327
227419
227522
227641
227718
227833
228159
228319
228425
228514
228596
228671
228716
228760
228805
228882
229065
229216
229310
229375
229418
229463
229501
229541
229557
229616
229568
229636
229658
229695
229688
229633
229504
229170
228626
227903
225298
224528
223930
223478
223184
223036
222990
223007
223069
223071
222682
222442
222169
221985
221812
221713
221631
221535
221321
221033
219730
219264
218909
218651
218428
218278
218157
218015
217857
217690
217581
217649
217743
217804
217800
217784
217741
217718
217719
217754
218014
218068
218164
218215
218281
218377
218539
218713
218890
219052
219269
219261
219254
219323
219428
219569
219744
219927
220099
220249
219828
219400
218843
218255
217702
217225
216847
216599
216489
216463
216804
217042
217225
217386
217487
217538
217506
217552
217566
217634
217705
217849
217891
217928
217937
217945
217948
217986
218034
218228
218896
219249
219584
219870
220143
220407
220653
220880
221080
221301
221963
222275
222596
222928
223238
223569
223922
224306
224747
225213
226675
227095
227477
227878
228241
228629
229069
229475
229865
230221
231204
231453
231638
231565
231265
230847
230416
230039
229674
229391
229130
229180
229337
229524
229745
229948
230154
230346
230537
230655
230969
231001
231103
231143
231227
231283
231353
231438
231494
231593
232065
232283
232469
232672
232888
233115
233320
233510
233663
233820
234044
234117
234160
234160
234191
234224
234276
234330
234411
234554
235149
235499
235783
236046
236286
236528
236730
236952
237171
237408
237864
237998
237988
237736
237174
236405
235688
235073
234603
233877
233881
233931
234052
234211
234419
234643
234839
234984
235075
235126
235143
235147
235114
235036
234951
234889
234837
234755
234739
234738
234775
234817
234869
234960
235032
235131
235197
235284
235377
235657
235719
235815
235885
235937
235939
235932
235894
235909
235935
236118
236089
236094
236060
236076
236056
236099
236148
236217
236251
236409
236401
236401
236318
236071
235579
234924
234196
233479
232757
231099
230843
230677
230602
230547
230478
230451
230416
230411
230454
230764
231045
231338
231628
231923
232141
232285
232272
232248
232213
231850
231782
231691
231639
231671
231721
231827
231927
232092
232232
232560
232720
232805
232852
232878
232907
232944
232940
232906
232724
232688
232601
232509
232355
232223
232036
231843
231713
231659
231586
231535
231476
231388
231270
231167
230929
230514
229848
229008
226301
225445
224775
224278
223983
223927
224051
224306
224626
225014
226106
226303
226485
226618
226670
226698
226688
226621
226545
226428
226121
225980
225891
225795
225732
225731
225756
225875
226009
226156
226684
226835
227057
227330
227588
227883
228219
228631
229166
229800
231676
232346
232955
233571
234140
234712
235134
235545
235881
236200
237035
237331
237535
237773
238004
238249
238503
238719
238745
238489
236086
235490
235004
234641
234398
234282
234229
234253
234333
234501
234946
235226
235421
235656
235881
236156
236379
236567
236649
236664
236680
236755
236823
236861
236932
237016
237092
237170
237256
237389
237871
238029
238203
238400
238578
238765
238942
239114
239235
239334
239445
239373
239371
239326
239321
239324
239327
239354
239403
239464
239740
239831
239950
240102
240268
240422
240554
240657
240623
240343
238203
237505
236972
236637
236355
236222
236156
236181
236245
236372
236830
236992
237126
237274
237408
237585
237768
237880
237942
237919
237614
237574
237539
237527
237561
237660
237746
237874
238012
238154
238623
238877
238977
239073
239143
239226
239242
239245
239187
239127
238609
238504
238330
238115
237874
237665
237461
237296
237145
236858
236869
236875
236875
236868
236844
236836
236732
236413
235880
233980
233449
232954
232589
232337
232120
231984
231847
231760
231719
231858
231944
232026
232107
232229
232309
232368
232309
232190
231983
231238
230834
230461
230139
229910
229719
229583
229448
229397
229337
229254
229140
229090
229046
229011
229024
229017
229040
229073
229112
229461
229511
229638
229767
229995
230224
230541
230831
231149
231472
232673
233160
233679
234215
234833
235398
235850
236086
236092
235883
235380
235661
236081
236639
237315
238027
238753
239422
240064
240612
242041
242618
243093
243592
244026
244399
244744
245023
245239
245431
245814
246231
246330
246423
246515
246580
246603
246621
246644
246699
246807
246852
246878
246885
246921
246976
247009
247058
247095
247152
247232
247272
247330
247378
247420
247464
247528
247576
247676
247976
248078
248212
248357
248517
248619
248620
248489
248218
247829
247497
248021
248650
249054
249288
249445
249582
249693
249814
249950
250711
250926
251141
251362
251486
251581
251677
251776
251916
252046
252183
252143
252163
252257
252325
252389
252419
252464
252499
252547
252707
252773
252818
252845
252876
252906
252940
252987
253046
253109
253154
253228
253283
253304
253318
253387
253399
253414
253420
253460
253396
253428
253431
253390
253321
253100
252751
252353
251847
251328
250263
250324
250440
250658
250900
251174
251425
251697
251914
252171
252536
252727
252841
252924
253013
253108
253196
253281
253380
253660
253800
253885
253940
254086
254486
254695
254954
255209
255449
256136
256293
256410
256526
256665
256772
256895
256969
257056
257154
257565
257613
257747
257864
258011
258119
258235
258337
258449
258554
258872
258908
258914
258840
258791
258756
258731
258752
258794
258864
259193
259227
259315
259351
259419
259418
259485
259521
259570
259610
259667
259594
259572
259473
259431
259370
259301
259276
259283
259292
259361
259404
259422
259410
259464
259460
259488
259507
259500
259489
259463
259515
259500
259475
259454
259434
259422
259378
259377
259368
259384
259468
259508
259548
259587
259652
259687
259673
259660
259549
258345
257862
257307
256792
256398
256107
255969
255888
255925
256050
256307
256495
256625
256770
256928
257054
257186
257261
257316
257306
257344
257377
257382
257384
257417
257442
257503
257537
257587
257617
257651
257615
257607
257539
257523
257481
257439
257397
257318
257207
257082
257001
256986
256974
256984
256965
256959
256918
256921
256877
256899
256829
256814
256790
256787
256722
256574
256246
255752
255023
252503
251720
251175
250805
250631
250570
250621
250716
250799
250862
251004
250975
250993
250984
250987
250929
250841
250701
250567
250383
249915
249909
249870
249842
249894
249919
249954
249942
249997
249967
249948
249990
250041
250039
250113
250152
250237
250274
250378
250476
250632
250771
250877
250931
251009
251082
251140
251174
251225
251287
251278
251345
251193
250740
250059
249173
248340
247620
247131
246300
246259
246273
246378
246489
246633
246740
246887
247004
247072
247313
247389
247391
247372
247312
247259
247197
247147
247058
247057
247206
247271
247355
247503
247639
247817
247954
248137
248293
248448
248772
248871
