Tran,San,Gia_tri_PPG,Truc_0
300,-300,-1954.04,0
300,-300,-1828.04,0
300,-300,-1695.94,0
300,-300,-1567.26,0
300,-300,-1447.43,0
300,-300,-1342.61,0
300,-300,-1254.69,0
300,-300,-1183.69,0
300,-300,-1128.13,0
300,-300,-1082.53,0
300,-300,-1039.10,0
300,-300,-993.39,0
300,-300,-937.83,0
300,-300,-870.57,0
300,-300,-788.13,0
300,-300,-692.16,0
300,-300,-584.93,0
300,-300,-472.29,0
300,-300,-356.95,0
300,-300,-246.48,0
300,-300,-144.04,0
300,-300,-54.95,0
300,-300,20.21,0
300,-300,78.88,0
300,-300,121.95,0
300,-300,148.77,0
300,-300,161.16,0
300,-300,158.33,0
300,-300,140.10,0
300,-300,104.12,0
300,-300,49.20,0
300,-300,-27.47,0
300,-300,-126.83,0
300,-300,-250.47,0
300,-300,-397.64,0
300,-300,-566.12,0
300,-300,-751.81,0
300,-300,-949.49,0
300,-300,-1153.26,0
300,-300,-1356.84,0
300,-300,-1553.86,0
300,-300,-1740.07,0
300,-300,-1911.29,0
300,-300,-2066.45,0
300,-300,-2204.79,0
300,-300,-2326.75,0
300,-300,-2433.25,0
300,-300,-2525.44,0
300,-300,-2603.61,0
300,-300,-2668.21,0
300,-300,-2717.35,0
300,-300,-2749.89,0
300,-300,-2762.76,0
300,-300,-2755.28,0
300,-300,-2726.03,0
300,-300,-2677.04,0
300,-300,-2609.88,0
300,-300,-2530.76,0
300,-300,-2444.31,0
300,-300,-2358.65,0
300,-300,-2280.09,0
300,-300,-2214.72,0
300,-300,-2165.68,0
300,-300,-2135.43,0
300,-300,-2113.71,0
300,-300,-2103.64,0
300,-300,-2094.28,0
300,-300,-2080.19,0
300,-300,-2053.17,0
300,-300,-2008.58,0
300,-300,-1942.32,0
300,-300,-1855.94,0
300,-300,-1751.41,0
300,-300,-1636.34,0
300,-300,-1518.18,0
300,-300,-1406.87,0
300,-300,-1308.29,0
300,-300,-1230.61,0
300,-300,-1175.81,0
300,-300,-1144.44,0
300,-300,-1131.90,0
300,-300,-1132.68,0
300,-300,-1137.14,0
300,-300,-1138.75,0
300,-300,-1126.94,0
300,-300,-1096.08,0
300,-300,-1044.87,0
300,-300,-970.13,0
300,-300,-873.11,0
300,-300,-759.99,0
300,-300,-636.17,0
300,-300,-509.31,0
300,-300,-384.85,0
300,-300,-270.05,0
300,-300,-166.94,0
300,-300,-80.08,0
300,-300,-10.31,0
300,-300,40.76,0
300,-300,73.59,0
300,-300,85.80,0
300,-300,77.18,0
300,-300,44.31,0
300,-300,-13.87,0
300,-300,-102.11,0
300,-300,-219.84,0
300,-300,-369.36,0
300,-300,-548.49,0
300,-300,-754.31,0
300,-300,-980.75,0
300,-300,-1222.37,0
300,-300,-1469.14,0
300,-300,-1714.59,0
300,-300,-1949.18,0
300,-300,-2167.83,0
300,-300,-2365.01,0
300,-300,-2538.59,0
300,-300,-2687.15,0
300,-300,-2813.23,0
300,-300,-2917.62,0
300,-300,-3003.88,0
300,-300,-3073.05,0
300,-300,-3126.94,0
300,-300,-3165.30,0
300,-300,-3188.50,0
300,-300,-3193.98,0
300,-300,-3181.29,0
300,-300,-3149.65,0
300,-300,-3100.74,0
300,-300,-3036.36,0
300,-300,-2961.49,0
300,-300,-2881.36,0
300,-300,-2803.17,0
300,-300,-2728.57,0
300,-300,-2665.20,0
300,-300,-2614.74,0
300,-300,-2576.87,0
300,-300,-2549.85,0
300,-300,-2529.41,0
300,-300,-2508.95,0
300,-300,-2482.97,0
300,-300,-2444.34,0
300,-300,-2389.73,0
300,-300,-2316.38,0
300,-300,-2224.73,0
300,-300,-2116.80,0
300,-300,-1997.90,0
300,-300,-1872.40,0
300,-300,-1746.49,0
300,-300,-1623.78,0
300,-300,-1507.97,0
300,-300,-1398.99,0
300,-300,-1296.31,0
300,-300,-1196.80,0
300,-300,-1097.37,0
300,-300,-990.96,0
300,-300,-881.94,0
300,-300,-761.03,0
300,-300,-630.51,0
300,-300,-491.64,0
300,-300,-349.70,0
300,-300,-209.07,0
300,-300,-76.58,0
300,-300,44.37,0
300,-300,146.99,0
300,-300,229.96,0
300,-300,290.84,0
300,-300,329.90,0
300,-300,346.57,0
300,-300,342.79,0
300,-300,318.36,0
300,-300,274.93,0
300,-300,211.28,0
300,-300,127.71,0
300,-300,21.55,0
300,-300,-104.90,0
300,-300,-254.89,0
300,-300,-425.54,0
300,-300,-616.11,0
300,-300,-821.69,0
300,-300,-1038.49,0
300,-300,-1259.47,0
300,-300,-1480.80,0
300,-300,-1694.90,0
300,-300,-1898.30,0
300,-300,-2084.86,0
300,-300,-2254.61,0
300,-300,-2404.03,0
300,-300,-2534.42,0
300,-300,-2644.76,0
300,-300,-2737.40,0
300,-300,-2811.29,0
300,-300,-2869.85,0
300,-300,-2909.55,0
300,-300,-2933.11,0
300,-300,-2937.24,0
300,-300,-2923.56,0
300,-300,-2889.93,0
300,-300,-2839.38,0
300,-300,-2770.72,0
300,-300,-2689.02,0
300,-300,-2595.47,0
300,-300,-2492.70,0
300,-300,-2387.09,0
300,-300,-2284.26,0
300,-300,-2187.07,0
300,-300,-2100.87,0
300,-300,-2026.75,0
300,-300,-1968.51,0
300,-300,-1924.19,0
300,-300,-1894.88,0
300,-300,-1876.03,0
300,-300,-1866.08,0
300,-300,-1858.12,0
300,-300,-1848.90,0
300,-300,-1830.06,0
300,-300,-1799.34,0
300,-300,-1749.15,0
300,-300,-1678.45,0
300,-300,-1582.57,0
300,-300,-1464.04,0
300,-300,-1322.10,0
300,-300,-1163.10,0
300,-300,-988.62,0
300,-300,-811.60,0
300,-300,-633.00,0
300,-300,-463.50,0
300,-300,-305.62,0
300,-300,-168.60,0
300,-300,-52.07,0
300,-300,37.57,0
300,-300,104.32,0
300,-300,143.33,0
300,-300,160.64,0
300,-300,153.16,0
300,-300,126.88,0
300,-300,76.94,0
300,-300,9.09,0
300,-300,-82.61,0
300,-300,-193.08,0
300,-300,-328.27,0
300,-300,-482.28,0
300,-300,-658.93,0
300,-300,-848.80,0
300,-300,-1053.61,0
300,-300,-1261.68,0
300,-300,-1473.17,0
300,-300,-1675.52,0
300,-300,-1870.05,0
300,-300,-2045.44,0
300,-300,-2205.57,0
300,-300,-2343.85,0
300,-300,-2466.05,0
300,-300,-2566.66,0
300,-300,-2655.07,0
300,-300,-2724.40,0
300,-300,-2783.38,0
300,-300,-2824.62,0
300,-300,-2854.57,0
300,-300,-2863.89,0
300,-300,-2858.55,0
300,-300,-2831.28,0
300,-300,-2787.10,0
300,-300,-2720.55,0
300,-300,-2640.76,0
300,-300,-2544.14,0
300,-300,-2443.34,0
300,-300,-2335.98,0
300,-300,-2234.63,0
300,-300,-2136.28,0
300,-300,-2051.61,0
300,-300,-1972.68,0
300,-300,-1910.18,0
300,-300,-1853.71,0
300,-300,-1809.07,0
300,-300,-1766.06,0
300,-300,-1729.54,0
300,-300,-1688.52,0
300,-300,-1649.36,0
300,-300,-1601.89,0
300,-300,-1553.63,0
300,-300,-1494.25,0
300,-300,-1433.39,0
300,-300,-1359.87,0
300,-300,-1282.88,0
300,-300,-1192.57,0
300,-300,-1096.58,0
300,-300,-985.61,0
300,-300,-868.51,0
300,-300,-737.31,0
300,-300,-603.01,0
300,-300,-458.51,0
300,-300,-316.77,0
300,-300,-176.88,0
300,-300,-47.95,0
300,-300,73.41,0
300,-300,175.10,0
300,-300,262.21,0
300,-300,325.00,0
300,-300,370.96,0
300,-300,392.14,0
300,-300,396.76,0
300,-300,377.65,0
300,-300,343.51,0
300,-300,285.19,0
300,-300,210.59,0
300,-300,110.02,0
300,-300,-8.33,0
300,-300,-153.47,0
300,-300,-316.31,0
300,-300,-503.80,0
300,-300,-703.52,0
300,-300,-919.96,0
300,-300,-1138.93,0
300,-300,-1363.85,0
300,-300,-1579.55,0
300,-300,-1790.45,0
300,-300,-1982.96,0
300,-300,-2163.32,0
300,-300,-2320.42,0
300,-300,-2463.84,0
300,-300,-2582.66,0
300,-300,-2687.61,0
300,-300,-2768.40,0
300,-300,-2835.79,0
300,-300,-2878.14,0
300,-300,-2906.96,0
300,-300,-2909.68,0
300,-300,-2898.53,0
300,-300,-2862.59,0
300,-300,-2817.73,0
300,-300,-2754.02,0
300,-300,-2687.56,0
300,-300,-2611.80,0
300,-300,-2543.96,0
300,-300,-2475.78,0
300,-300,-2422.36,0
300,-300,-2372.41,0
300,-300,-2338.11,0
300,-300,-2304.50,0
300,-300,-2276.55,0
300,-300,-2242.16,0
300,-300,-2206.34,0
300,-300,-2154.84,0
300,-300,-2097.75,0
300,-300,-2022.70,0
300,-300,-1943.71,0
300,-300,-1851.76,0
300,-300,-1763.93,0
300,-300,-1671.63,0
300,-300,-1590.81,0
300,-300,-1512.41,0
300,-300,-1447.74,0
300,-300,-1384.10,0
300,-300,-1331.25,0
300,-300,-1271.78,0
300,-300,-1214.17,0
300,-300,-1141.04,0
300,-300,-1062.41,0
300,-300,-964.24,0
300,-300,-860.52,0
300,-300,-739.95,0
300,-300,-622.33,0
300,-300,-497.04,0
300,-300,-382.70,0
300,-300,-271.69,0
300,-300,-181.47,0
300,-300,-101.60,0
300,-300,-46.01,0
300,-300,-2.98,0
300,-300,15.39,0
300,-300,23.46,0
300,-300,6.58,0
300,-300,-20.40,0
300,-300,-72.21,0
300,-300,-136.60,0
300,-300,-228.64,0
300,-300,-335.54,0
300,-300,-473.22,0
300,-300,-625.56,0
300,-300,-804.49,0
300,-300,-992.91,0
300,-300,-1201.49,0
300,-300,-1409.22,0
300,-300,-1625.27,0
300,-300,-1831.00,0
300,-300,-2035.57,0
300,-300,-2221.79,0
300,-300,-2401.61,0
300,-300,-2559.04,0
300,-300,-2707.33,0
300,-300,-2832.80,0
300,-300,-2947.49,0
300,-300,-3037.75,0
300,-300,-3115.74,0
300,-300,-3166.32,0
300,-300,-3201.40,0
300,-300,-3205.94,0
300,-300,-3194.25,0
300,-300,-3153.16,0
300,-300,-3099.50,0
300,-300,-3023.83,0
300,-300,-2946.00,0
300,-300,-2859.15,0
300,-300,-2783.70,0
300,-300,-2712.09,0
300,-300,-2661.78,0
300,-300,-2621.58,0
300,-300,-2597.70,0
300,-300,-2578.12,0
300,-300,-2567.82,0
300,-300,-2545.72,0
300,-300,-2517.96,0
300,-300,-2464.88,0
300,-300,-2395.24,0
300,-300,-2294.54,0
300,-300,-2177.90,0
300,-300,-2036.99,0
300,-300,-1891.29,0
300,-300,-1736.40,0
300,-300,-1594.04,0
300,-300,-1455.60,0
300,-300,-1341.10,0
300,-300,-1238.65,0
300,-300,-1159.60,0
300,-300,-1086.99,0
300,-300,-1028.47,0
300,-300,-965.04,0
300,-300,-903.45,0
300,-300,-825.29,0
300,-300,-740.15,0
300,-300,-638.01,0
300,-300,-529.62,0
300,-300,-406.16,0
300,-300,-286.10,0
300,-300,-161.22,0
300,-300,-49.39,0
300,-300,58.25,0
300,-300,146.30,0
300,-300,226.61,0
300,-300,285.50,0
300,-300,335.27,0
300,-300,363.71,0
300,-300,383.12,0
300,-300,378.59,0
300,-300,361.60,0
300,-300,315.84,0
300,-300,250.54,0
300,-300,151.15,0
300,-300,29.19,0
300,-300,-128.73,0
300,-300,-306.39,0
300,-300,-513.35,0
300,-300,-730.96,0
300,-300,-965.55,0
300,-300,-1196.86,0
300,-300,-1431.17,0
300,-300,-1650.65,0
300,-300,-1862.23,0
300,-300,-2052.64,0
300,-300,-2231.61,0
300,-300,-2387.04,0
300,-300,-2532.74,0
300,-300,-2655.50,0
300,-300,-2768.62,0
300,-300,-2857.94,0
300,-300,-2935.34,0
300,-300,-2985.70,0
300,-300,-3020.26,0
300,-300,-3022.71,0
300,-300,-3007.15,0
300,-300,-2961.46,0
300,-300,-2901.41,0
300,-300,-2819.11,0
300,-300,-2734.26,0
300,-300,-2641.83,0
300,-300,-2562.54,0
300,-300,-2487.56,0
300,-300,-2436.37,0
300,-300,-2395.55,0
300,-300,-2377.97,0
300,-300,-2365.75,0
300,-300,-2365.22,0
300,-300,-2356.17,0
300,-300,-2344.00,0
300,-300,-2309.27,0
300,-300,-2258.13,0
300,-300,-2178.85,0
300,-300,-2085.11,0
300,-300,-1967.26,0
300,-300,-1844.73,0
300,-300,-1712.26,0
300,-300,-1589.45,0
300,-300,-1469.65,0
300,-300,-1370.14,0
300,-300,-1279.47,0
300,-300,-1208.63,0
300,-300,-1142.65,0
300,-300,-1087.39,0
300,-300,-1029.60,0
300,-300,-971.53,0
300,-300,-896.68,0
300,-300,-815.33,0
300,-300,-714.08,0
300,-300,-607.47,0
300,-300,-485.46,0
300,-300,-365.77,0
300,-300,-239.92,0
300,-300,-125.10,0
300,-300,-13.60,0
300,-300,80.26,0
300,-300,166.79,0
300,-300,232.18,0
300,-300,288.70,0
300,-300,323.52,0
300,-300,348.27,0
300,-300,348.13,0
300,-300,335.44,0
300,-300,295.26,0
300,-300,237.28,0
300,-300,146.36,0
300,-300,33.79,0
300,-300,-113.10,0
300,-300,-279.88,0
300,-300,-476.67,0
300,-300,-685.73,0
300,-300,-915.33,0
300,-300,-1145.58,0
300,-300,-1382.75,0
300,-300,-1608.38,0
300,-300,-1830.64,0
300,-300,-2032.90,0
300,-300,-2225.59,0
300,-300,-2395.06,0
300,-300,-2553.51,0
300,-300,-2688.64,0
300,-300,-2813.44,0
300,-300,-2915.44,0
300,-300,-3005.36,0
300,-300,-3070.65,0
300,-300,-3122.25,0
300,-300,-3145.89,0
300,-300,-3153.37,0
300,-300,-3132.55,0
300,-300,-3097.18,0
300,-300,-3038.70,0
300,-300,-2974.06,0
300,-300,-2897.84,0
300,-300,-2826.70,0
300,-300,-2756.14,0
300,-300,-2702.25,0
300,-300,-2654.85,0
300,-300,-2627.02,0
300,-300,-2603.24,0
300,-300,-2591.15,0
300,-300,-2566.06,0
300,-300,-2538.26,0
300,-300,-2487.08,0
300,-300,-2418.91,0
300,-300,-2319.31,0
300,-300,-2201.16,0
300,-300,-2056.04,0
300,-300,-1903.08,0
300,-300,-1738.71,0
300,-300,-1584.15,0
300,-300,-1436.17,0
300,-300,-1313.09,0
300,-300,-1206.36,0
300,-300,-1130.62,0
300,-300,-1069.55,0
300,-300,-1029.69,0
300,-300,-991.94,0
300,-300,-959.62,0
300,-300,-913.62,0
300,-300,-859.75,0
300,-300,-783.50,0
300,-300,-694.21,0
300,-300,-585.59,0
300,-300,-470.35,0
300,-300,-343.14,0
300,-300,-221.85,0
300,-300,-100.68,0
300,-300,4.57,0
300,-300,102.33,0
300,-300,180.13,0
300,-300,248.01,0
300,-300,296.56,0
300,-300,335.70,0
300,-300,354.82,0
300,-300,363.59,0
300,-300,348.14,0
300,-300,316.39,0
300,-300,253.38,0
300,-300,167.39,0
300,-300,44.73,0
300,-300,-104.46,0
300,-300,-289.29,0
300,-300,-493.93,0
300,-300,-724.13,0
300,-300,-961.21,0
300,-300,-1207.99,0
300,-300,-1446.39,0
300,-300,-1679.91,0
300,-300,-1893.14,0
300,-300,-2093.63,0
300,-300,-2269.09,0
300,-300,-2431.90,0
300,-300,-2570.71,0
300,-300,-2699.24,0
300,-300,-2807.69,0
300,-300,-2906.60,0
300,-300,-2983.94,0
300,-300,-3048.38,0
300,-300,-3086.61,0
300,-300,-3107.41,0
300,-300,-3098.32,0
300,-300,-3070.48,0
300,-300,-3015.02,0
300,-300,-2947.67,0
300,-300,-2864.35,0
300,-300,-2783.19,0
300,-300,-2701.20,0
300,-300,-2635.24,0
300,-300,-2579.94,0
300,-300,-2541.84,0
300,-300,-2513.10,0
300,-300,-2497.63,0
300,-300,-2478.42,0
300,-300,-2457.64,0
300,-300,-2417.31,0
300,-300,-2362.12,0
300,-300,-2278.30,0
300,-300,-2175.86,0
300,-300,-2047.93,0
300,-300,-1910.66,0
300,-300,-1761.50,0
300,-300,-1618.75,0
300,-300,-1480.32,0
300,-300,-1360.80,0
300,-300,-1254.01,0
300,-300,-1169.09,0
300,-300,-1092.63,0
300,-300,-1029.33,0
300,-300,-962.34,0
300,-300,-896.08,0
300,-300,-812.85,0
300,-300,-724.74,0
300,-300,-616.26,0
300,-300,-499.22,0
300,-300,-368.92,0
300,-300,-240.73,0
300,-300,-111.61,0
300,-300,3.65,0
300,-300,110.10,0
300,-300,195.48,0
300,-300,267.93,0
300,-300,318.02,0
300,-300,355.57,0
300,-300,372.65,0
300,-300,378.62,0
300,-300,363.92,0
300,-300,335.72,0
300,-300,282.66,0
300,-300,210.24,0
300,-300,106.10,0
300,-300,-22.79,0
300,-300,-184.93,0
300,-300,-370.94,0
300,-300,-585.55,0
300,-300,-814.32,0
300,-300,-1059.13,0
300,-300,-1303.54,0
300,-300,-1548.80,0
300,-300,-1779.81,0
300,-300,-2000.18,0
300,-300,-2198.89,0
300,-300,-2381.57,0
300,-300,-2541.46,0
300,-300,-2688.09,0
300,-300,-2813.85,0
300,-300,-2928.57,0
300,-300,-3023.57,0
300,-300,-3106.77,0
300,-300,-3168.64,0
300,-300,-3214.71,0
300,-300,-3235.02,0
300,-300,-3235.80,0
300,-300,-3209.53,0
300,-300,-3166.89,0
300,-300,-3103.37,0
300,-300,-3033.04,0
300,-300,-2955.08,0
300,-300,-2884.49,0
300,-300,-2817.49,0
300,-300,-2767.14,0
300,-300,-2726.59,0
300,-300,-2702.77,0
300,-300,-2682.71,0
300,-300,-2668.23,0
300,-300,-2644.27,0
300,-300,-2610.51,0
300,-300,-2553.32,0
300,-300,-2476.03,0
300,-300,-2370.16,0
300,-300,-2244.97,0
300,-300,-2098.17,0
300,-300,-1943.94,0
300,-300,-1783.13,0
300,-300,-1630.34,0
300,-300,-1484.93,0
300,-300,-1357.95,0
300,-300,-1243.43,0
300,-300,-1146.98,0
300,-300,-1058.36,0
300,-300,-977.92,0
300,-300,-898.04,0
300,-300,-815.90,0
300,-300,-721.84,0
300,-300,-620.49,0
300,-300,-506.40,0
300,-300,-388.76,0
300,-300,-265.14,0
300,-300,-146.77,0
300,-300,-32.05,0
300,-300,68.36,0
300,-300,158.12,0
300,-300,228.84,0
300,-300,286.37,0
300,-300,325.03,0
300,-300,351.31,0
300,-300,360.06,0
300,-300,356.78,0
300,-300,334.41,0
300,-300,296.77,0
300,-300,235.49,0
300,-300,154.79,0
300,-300,46.01,0
300,-300,-86.48,0
300,-300,-247.47,0
300,-300,-429.22,0
300,-300,-633.82,0
300,-300,-850.10,0
300,-300,-1077.87,0
300,-300,-1305.67,0
300,-300,-1532.36,0
300,-300,-1748.25,0
300,-300,-1954.35,0
300,-300,-2143.53,0
300,-300,-2319.62,0
300,-300,-2477.14,0
300,-300,-2621.25,0
300,-300,-2747.20,0
300,-300,-2860.15,0
300,-300,-2953.72,0
300,-300,-3031.24,0
300,-300,-3086.07,0
300,-300,-3121.07,0
300,-300,-3130.81,0
300,-300,-3120.24,0
300,-300,-3085.91,0
300,-300,-3035.80,0
300,-300,-2970.20,0
300,-300,-2900.72,0
300,-300,-2827.72,0
300,-300,-2761.57,0
300,-300,-2701.78,0
300,-300,-2654.76,0
300,-300,-2615.26,0
300,-300,-2584.69,0
300,-300,-2552.83,0
300,-300,-2518.21,0
300,-300,-2469.95,0
300,-300,-2404.70,0
300,-300,-2317.29,0
300,-300,-2209.10,0
300,-300,-2079.05,0
300,-300,-1935.72,0
300,-300,-1781.94,0
300,-300,-1629.76,0
300,-300,-1482.65,0
300,-300,-1351.18,0
300,-300,-1235.95,0
300,-300,-1141.35,0
300,-300,-1062.75,0
300,-300,-1001.01,0
300,-300,-945.35,0
300,-300,-893.11,0
300,-300,-833.54,0
300,-300,-765.37,0
300,-300,-681.96,0
300,-300,-586.52,0
300,-300,-477.08,0
300,-300,-360.23,0
300,-300,-239.08,0
300,-300,-122.17,0
300,-300,-11.70,0
300,-300,84.53,0
300,-300,166.44,0
300,-300,229.00,0
300,-300,275.03,0
300,-300,301.31,0
300,-300,310.92,0
300,-300,300.98,0
300,-300,274.77,0
300,-300,227.92,0
300,-300,162.68,0
300,-300,73.78,0
300,-300,-37.31,0
300,-300,-174.10,0
300,-300,-333.05,0
300,-300,-514.70,0
300,-300,-713.43,0
300,-300,-925.90,0
300,-300,-1144.02,0
300,-300,-1364.51,0
300,-300,-1578.55,0
300,-300,-1784.28,0
300,-300,-1975.52,0
300,-300,-2152.32,0
300,-300,-2311.17,0
300,-300,-2455.06,0
300,-300,-2583.22,0
300,-300,-2697.49,0
300,-300,-2796.53,0
300,-300,-2882.16,0
300,-300,-2951.01,0
300,-300,-3004.31,0
300,-300,-3038.16,0
300,-300,-3052.24,0
300,-300,-3043.36,0
300,-300,-3013.49,0
300,-300,-2956.08,0
300,-300,-2879.26,0
300,-300,-2782.71,0
300,-300,-2672.86,0
300,-300,-2554.09,0
300,-300,-2433.35,0
300,-300,-2315.54,0
300,-300,-2207.79,0
300,-300,-2113.00,0
300,-300,-2036.16,0
300,-300,-1977.03,0
300,-300,-1937.18,0
300,-300,-1911.82,0
300,-300,-1899.13,0
300,-300,-1892.32,0
300,-300,-1885.77,0
300,-300,-1871.38,0
300,-300,-1843.77,0
300,-300,-1795.65,0
300,-300,-1724.38,0
300,-300,-1626.66,0
300,-300,-1503.69,0
300,-300,-1355.14,0
300,-300,-1188.10,0
300,-300,-1007.21,0
300,-300,-820.56,0
300,-300,-634.42,0
300,-300,-457.30,0
300,-300,-293.89,0
300,-300,-150.10,0
300,-300,-28.48,0
300,-300,69.50,0
300,-300,142.51,0
300,-300,192.91,0
300,-300,221.97,0
300,-300,230.38,0
300,-300,219.29,0
300,-300,188.36,0
300,-300,136.28,0
300,-300,62.23,0
300,-300,-34.80,0
300,-300,-155.84,0
300,-300,-301.40,0
300,-300,-468.56,0
300,-300,-654.60,0
300,-300,-855.60,0
300,-300,-1065.14,0
300,-300,-1277.46,0
300,-300,-1487.86,0
300,-300,-1689.73,0
300,-300,-1879.15,0
300,-300,-2054.28,0
300,-300,-2214.25,0
300,-300,-2359.14,0
300,-300,-2489.40,0
300,-300,-2606.50,0
300,-300,-2710.91,0
300,-300,-2802.23,0
300,-300,-2880.30,0
300,-300,-2941.65,0
300,-300,-2984.07,0
300,-300,-3004.79,0
300,-300,-3002.13,0
300,-300,-2976.87,0
300,-300,-2929.71,0
300,-300,-2864.54,0
300,-300,-2784.91,0
300,-300,-2696.99,0
300,-300,-2599.25,0
300,-300,-2503.35,0
300,-300,-2411.10,0
300,-300,-2324.44,0
300,-300,-2245.06,0
300,-300,-2173.36,0
300,-300,-2107.70,0
300,-300,-2047.16,0
300,-300,-1990.02,0
300,-300,-1935.38,0
300,-300,-1882.03,0
300,-300,-1830.29,0
300,-300,-1779.34,0
300,-300,-1727.91,0
300,-300,-1675.69,0
300,-300,-1620.86,0
300,-300,-1560.09,0
300,-300,-1490.58,0
300,-300,-1408.59,0
300,-300,-1311.54,0
300,-300,-1197.43,0
300,-300,-1066.06,0
300,-300,-917.33,0
300,-300,-759.19,0
300,-300,-592.96,0
300,-300,-424.72,0
300,-300,-261.08,0
300,-300,-108.41,0
300,-300,27.79,0
300,-300,143.76,0
300,-300,237.88,0
300,-300,309.67,0
300,-300,359.82,0
300,-300,390.01,0
300,-300,401.42,0
300,-300,394.73,0
300,-300,369.64,0
300,-300,324.50,0
300,-300,256.88,0
300,-300,163.15,0
300,-300,42.66,0
300,-300,-106.05,0
300,-300,-282.04,0
300,-300,-482.74,0
300,-300,-703.54,0
300,-300,-938.10,0
300,-300,-1179.53,0
300,-300,-1419.80,0
300,-300,-1652.68,0
300,-300,-1873.67,0
300,-300,-2078.32,0
300,-300,-2265.46,0
300,-300,-2435.42,0
300,-300,-2588.16,0
300,-300,-2725.39,0
300,-300,-2847.35,0
300,-300,-2954.58,0
300,-300,-3044.15,0
300,-300,-3115.19,0
300,-300,-3164.92,0
300,-300,-3190.94,0
300,-300,-3189.98,0
300,-300,-3164.38,0
300,-300,-3115.05,0
300,-300,-3048.36,0
300,-300,-2968.91,0
300,-300,-2886.32,0
300,-300,-2807.20,0
300,-300,-2738.73,0
300,-300,-2679.27,0
300,-300,-2635.84,0
300,-300,-2602.73,0
300,-300,-2577.37,0
300,-300,-2551.98,0
300,-300,-2520.05,0
300,-300,-2473.96,0
300,-300,-2409.08,0
300,-300,-2322.68,0
300,-300,-2217.07,0
300,-300,-2093.39,0
300,-300,-1961.17,0
300,-300,-1824.12,0
300,-300,-1693.03,0
300,-300,-1571.98,0
300,-300,-1465.69,0
300,-300,-1374.21,0
300,-300,-1296.12,0
300,-300,-1225.53,0
300,-300,-1158.34,0
300,-300,-1086.56,0
300,-300,-1003.08,0
300,-300,-909.01,0
300,-300,-797.90,0
300,-300,-669.56,0
300,-300,-529.85,0
300,-300,-383.66,0
300,-300,-238.16,0
300,-300,-99.05,0
300,-300,26.19,0
300,-300,136.03,0
300,-300,226.90,0
300,-300,299.06,0
300,-300,352.14,0
300,-300,388.53,0
300,-300,407.41,0
300,-300,410.18,0
300,-300,394.31,0
300,-300,359.36,0
300,-300,299.19,0
300,-300,213.54,0
300,-300,98.32,0
300,-300,-46.73,0
300,-300,-222.87,0
300,-300,-425.21,0
300,-300,-650.40,0
300,-300,-890.05,0
300,-300,-1138.13,0
300,-300,-1385.49,0
300,-300,-1628.15,0
300,-300,-1857.31,0
300,-300,-2071.38,0
300,-300,-2266.74,0
300,-300,-2444.92,0
300,-300,-2604.28,0
300,-300,-2747.67,0
300,-300,-2873.12,0
300,-300,-2982.68,0
300,-300,-3073.11,0
300,-300,-3144.18,0
300,-300,-3191.68,0
300,-300,-3213.39,0
300,-300,-3207.88,0
300,-300,-3176.11,0
300,-300,-3119.40,0
300,-300,-3043.13,0
300,-300,-2952.22,0
300,-300,-2856.83,0
300,-300,-2763.86,0
300,-300,-2683.24,0
300,-300,-2619.70,0
300,-300,-2576.98,0
300,-300,-2554.30,0
300,-300,-2549.62,0
300,-300,-2554.48,0
300,-300,-2561.81,0
300,-300,-2559.67,0
300,-300,-2541.08,0
300,-300,-2491.71,0
300,-300,-2414.46,0
300,-300,-2303.72,0
300,-300,-2164.21,0
300,-300,-2001.20,0
300,-300,-1825.72,0
300,-300,-1645.60,0
300,-300,-1474.28,0
300,-300,-1318.00,0
300,-300,-1185.90,0
300,-300,-1078.04,0
300,-300,-996.32,0
300,-300,-933.72,0
300,-300,-890.34,0
300,-300,-851.53,0
300,-300,-811.82,0
300,-300,-761.98,0
300,-300,-699.68,0
300,-300,-620.19,0
300,-300,-525.61,0
300,-300,-416.89,0
300,-300,-300.62,0
300,-300,-179.54,0
300,-300,-62.93,0
300,-300,47.60,0
300,-300,144.59,0
300,-300,228.41,0
300,-300,295.20,0
300,-300,346.35,0
300,-300,380.88,0
300,-300,399.22,0
300,-300,400.61,0
300,-300,385.75,0
300,-300,351.07,0
300,-300,295.74,0
300,-300,214.85,0
300,-300,109.07,0
300,-300,-25.74,0
300,-300,-186.59,0
300,-300,-373.60,0
300,-300,-581.99,0
300,-300,-808.42,0
300,-300,-1042.84,0
300,-300,-1282.42,0
300,-300,-1517.41,0
300,-300,-1744.96,0
300,-300,-1956.92,0
300,-300,-2153.90,0
300,-300,-2330.93,0
300,-300,-2491.12,0
300,-300,-2632.04,0
300,-300,-2758.73,0
300,-300,-2866.62,0
300,-300,-2960.28,0
300,-300,-3035.81,0
300,-300,-3094.75,0
300,-300,-3131.64,0
300,-300,-3148.95,0
300,-300,-3142.81,0
300,-300,-3117.58,0
300,-300,-3072.60,0
300,-300,-3015.29,0
300,-300,-2946.97,0
300,-300,-2879.22,0
300,-300,-2815.34,0
300,-300,-2765.27,0
300,-300,-2729.56,0
300,-300,-2714.59,0
300,-300,-2716.12,0
300,-300,-2731.86,0
300,-300,-2752.67,0
300,-300,-2773.57,0
300,-300,-2780.92,0
300,-300,-2769.14,0
300,-300,-2726.76,0
300,-300,-2652.11,0
300,-300,-2540.11,0
300,-300,-2395.56,0
300,-300,-2220.35,0
300,-300,-2026.63,0
300,-300,-1820.57,0
300,-300,-1617.59,0
300,-300,-1423.82,0
300,-300,-1252.49,0
300,-300,-1105.50,0
300,-300,-990.17,0
300,-300,-900.87,0
300,-300,-838.63,0
300,-300,-791.48,0
300,-300,-758.27,0
300,-300,-723.51,0
300,-300,-689.98,0
300,-300,-641.04,0
300,-300,-580.18,0
300,-300,-500.64,0
300,-300,-408.75,0
300,-300,-302.35,0
300,-300,-191.12,0
300,-300,-74.01,0
300,-300,38.98,0
300,-300,148.71,0
300,-300,245.40,0
300,-300,332.13,0
300,-300,401.54,0
300,-300,457.17,0
300,-300,492.07,0
300,-300,511.02,0
300,-300,506.12,0
300,-300,481.25,0
300,-300,428.16,0
300,-300,349.97,0
300,-300,239.64,0
300,-300,102.24,0
300,-300,-67.29,0
300,-300,-261.08,0
300,-300,-481.37,0
300,-300,-716.07,0
300,-300,-964.91,0
300,-300,-1216.13,0
300,-300,-1467.54,0
300,-300,-1708.38,0
300,-300,-1937.67,0
300,-300,-2148.78,0
300,-300,-2344.28,0
300,-300,-2518.42,0
300,-300,-2676.97,0
300,-300,-2814.80,0
300,-300,-2938.32,0
300,-300,-3042.09,0
300,-300,-3130.15,0
300,-300,-3196.56,0
300,-300,-3243.73,0
300,-300,-3265.16,0
300,-300,-3265.75,0
300,-300,-3239.79,0
300,-300,-3194.62,0
300,-300,-3128.35,0
300,-300,-3053.48,0
300,-300,-2969.65,0
300,-300,-2890.49,0
300,-300,-2817.66,0
300,-300,-2761.59,0
300,-300,-2721.14,0
300,-300,-2702.65,0
300,-300,-2698.59,0
300,-300,-2709.26,0
300,-300,-2721.49,0
300,-300,-2726.94,0
300,-300,-2714.04,0
300,-300,-2678.69,0
300,-300,-2608.31,0
300,-300,-2505.01,0
300,-300,-2363.93,0
300,-300,-2194.67,0
300,-300,-1999.08,0
300,-300,-1792.99,0
300,-300,-1582.04,0
300,-300,-1383.84,0
300,-300,-1202.52,0
300,-300,-1051.34,0
300,-300,-930.37,0
300,-300,-844.71,0
300,-300,-785.11,0
300,-300,-750.90,0
300,-300,-728.33,0
300,-300,-714.36,0
300,-300,-693.81,0
300,-300,-664.79,0
300,-300,-616.94,0
300,-300,-552.67,0
300,-300,-466.79,0
300,-300,-367.85,0
300,-300,-253.16,0
300,-300,-135.01,0
300,-300,-12.07,0
300,-300,103.70,0
300,-300,214.91,0
300,-300,312.50,0
300,-300,400.87,0
300,-300,471.79,0
300,-300,532.89,0
300,-300,574.52,0
300,-300,603.55,0
300,-300,609.53,0
300,-300,597.40,0
300,-300,556.32,0
300,-300,489.30,0
300,-300,386.57,0
300,-300,254.86,0
300,-300,86.93,0
300,-300,-107.29,0
300,-300,-330.66,0
300,-300,-568.11,0
300,-300,-821.16,0
300,-300,-1072.84,0
300,-300,-1324.76,0
300,-300,-1563.54,0
300,-300,-1791.80,0
300,-300,-1998.75,0
300,-300,-2192.30,0
300,-300,-2363.41,0
300,-300,-2522.11,0
300,-300,-2660.12,0
300,-300,-2786.77,0
300,-300,-2892.12,0
300,-300,-2983.29,0
300,-300,-3049.51,0
300,-300,-3095.81,0
300,-300,-3112.40,0
300,-300,-3106.45,0
300,-300,-3070.50,0
300,-300,-3016.95,0
300,-300,-2943.11,0
300,-300,-2864.87,0
300,-300,-2782.06,0
300,-300,-2712.57,0
300,-300,-2655.96,0
300,-300,-2625.73,0
300,-300,-2614.77,0
300,-300,-2630.75,0
300,-300,-2660.50,0
300,-300,-2703.51,0
300,-300,-2741.34,0
300,-300,-2770.79,0
300,-300,-2772.97,0
300,-300,-2748.06,0
300,-300,-2678.61,0
300,-300,-2576.08,0
300,-300,-2432.47,0
300,-300,-2264.12,0
300,-300,-2072.43,0
300,-300,-1876.90,0
300,-300,-1681.54,0
300,-300,-1504.99,0
300,-300,-1347.18,0
300,-300,-1221.24,0
300,-300,-1118.26,0
300,-300,-1043.68,0
300,-300,-986.92,0
300,-300,-944.06,0
300,-300,-897.63,0
300,-300,-848.04,0
300,-300,-779.98,0
300,-300,-698.74,0
300,-300,-593.28,0
300,-300,-474.78,0
300,-300,-338.10,0
300,-300,-197.99,0
300,-300,-52.54,0
300,-300,82.28,0
300,-300,209.81,0
300,-300,315.55,0
300,-300,405.26,0
300,-300,468.71,0
300,-300,513.68,0
300,-300,530.00,0
300,-300,528.79,0
300,-300,499.98,0
300,-300,452.46,0
300,-300,376.76,0
300,-300,280.15,0
300,-300,153.13,0
300,-300,4.33,0
300,-300,-174.74,0
300,-300,-372.49,0
300,-300,-596.11,0
300,-300,-829.37,0
300,-300,-1075.81,0
300,-300,-1320.12,0
300,-300,-1564.42,0
300,-300,-1793.52,0
300,-300,-2012.84,0
300,-300,-2209.12,0
300,-300,-2391.36,0
300,-300,-2550.00,0
300,-300,-2696.70,0
300,-300,-2822.57,0
300,-300,-2938.34,0
300,-300,-3034.83,0
300,-300,-3121.55,0
300,-300,-3187.53,0
300,-300,-3239.23,0
300,-300,-3264.53,0
300,-300,-3271.79,0
300,-300,-3249.23,0
300,-300,-3210.33,0
300,-300,-3147.09,0
300,-300,-3074.66,0
300,-300,-2990.33,0
300,-300,-2912.99,0
300,-300,-2836.41,0
300,-300,-2777.33,0
300,-300,-2726.97,0
300,-300,-2695.96,0
300,-300,-2670.40,0
300,-300,-2648.33,0
300,-300,-2618.32,0
300,-300,-2580.17,0
300,-300,-2517.33,0
300,-300,-2436.19,0
300,-300,-2324.44,0
300,-300,-2195.74,0
300,-300,-2045.00,0
300,-300,-1890.76,0
300,-300,-1731.75,0
300,-300,-1588.33,0
300,-300,-1456.76,0
300,-300,-1351.90,0
300,-300,-1264.12,0
300,-300,-1202.19,0
300,-300,-1149.07,0
300,-300,-1107.76,0
300,-300,-1059.04,0
300,-300,-1005.66,0
300,-300,-931.55,0
300,-300,-843.32,0
300,-300,-728.64,0
300,-300,-605.90,0
300,-300,-464.22,0
300,-300,-322.59,0
300,-300,-176.93,0
300,-300,-45.09,0
300,-300,79.26,0
300,-300,181.40,0
300,-300,270.31,0
300,-300,334.82,0
300,-300,387.46,0
300,-300,414.98,0
300,-300,430.21,0
300,-300,419.49,0
300,-300,392.89,0
300,-300,334.68,0
300,-300,254.27,0
300,-300,136.84,0
300,-300,-7.03,0
300,-300,-188.54,0
300,-300,-391.82,0
300,-300,-624.17,0
300,-300,-865.71,0
300,-300,-1121.08,0
300,-300,-1368.96,0
300,-300,-1614.22,0
300,-300,-1838.42,0
300,-300,-2049.70,0
300,-300,-2234.05,0
300,-300,-2404.33,0
300,-300,-2547.08,0
300,-300,-2679.09,0
300,-300,-2788.69,0
300,-300,-2889.85,0
300,-300,-2968.74,0
300,-300,-3037.32,0
300,-300,-3079.75,0
300,-300,-3106.95,0
300,-300,-3103.68,0
300,-300,-3083.08,0
300,-300,-3030.89,0
300,-300,-2965.72,0
300,-300,-2876.90,0
300,-300,-2784.96,0
300,-300,-2681.97,0
300,-300,-2588.57,0
300,-300,-2495.72,0
300,-300,-2414.68,0
300,-300,-2338.54,0
300,-300,-2278.18,0
300,-300,-2216.23,0
300,-300,-2163.97,0
300,-300,-2103.50,0
300,-300,-2045.99,0
300,-300,-1975.84,0
300,-300,-1905.58,0
300,-300,-1823.04,0
300,-300,-1744.16,0
300,-300,-1655.90,0
300,-300,-1575.37,0
300,-300,-1487.96,0
300,-300,-1408.11,0
300,-300,-1319.55,0
300,-300,-1234.16,0
300,-300,-1133.37,0
300,-300,-1029.70,0
300,-300,-906.37,0
300,-300,-778.04,0
300,-300,-630.82,0
300,-300,-481.54,0
300,-300,-326.55,0
300,-300,-180.72,0
300,-300,-35.66,0
300,-300,86.54,0
300,-300,197.23,0
300,-300,278.59,0
300,-300,345.05,0
300,-300,381.61,0
300,-300,404.88,0
300,-300,401.80,0
300,-300,388.06,0
300,-300,348.49,0
300,-300,297.23,0
300,-300,217.28,0
300,-300,120.66,0
300,-300,-9.64,0
300,-300,-159.72,0
300,-300,-344.40,0
300,-300,-547.20,0
300,-300,-777.04,0
300,-300,-1014.45,0
300,-300,-1266.80,0
300,-300,-1510.69,0
300,-300,-1755.38,0
300,-300,-1978.52,0
300,-300,-2191.84,0
300,-300,-2378.26,0
300,-300,-2552.35,0
300,-300,-2699.53,0
300,-300,-2835.67,0
300,-300,-2945.79,0
300,-300,-3046.60,0
300,-300,-3120.78,0
300,-300,-3182.21,0
300,-300,-3211.79,0
300,-300,-3225.37,0
300,-300,-3203.75,0
300,-300,-3163.29,0
300,-300,-3089.90,0
300,-300,-3002.63,0
300,-300,-2891.02,0
300,-300,-2778.75,0
300,-300,-2656.32,0
300,-300,-2547.04,0
300,-300,-2439.24,0
300,-300,-2348.68,0
300,-300,-2265.15,0
300,-300,-2202.62,0
300,-300,-2141.80,0
300,-300,-2095.74,0
300,-300,-2044.46,0
300,-300,-2001.24,0
300,-300,-1946.71,0
300,-300,-1895.93,0
300,-300,-1832.45,0
300,-300,-1772.97,0
300,-300,-1700.76,0
300,-300,-1633.87,0
300,-300,-1554.21,0
300,-300,-1478.55,0
300,-300,-1386.94,0
300,-300,-1295.19,0
300,-300,-1183.15,0
300,-300,-1067.55,0
300,-300,-929.80,0
300,-300,-788.10,0
300,-300,-627.99,0
300,-300,-469.13,0
300,-300,-305.46,0
300,-300,-153.96,0
300,-300,-4.01,0
300,-300,122.00,0
300,-300,237.00,0
300,-300,321.76,0
300,-300,392.74,0
300,-300,433.03,0
300,-300,459.96,0
300,-300,457.42,0
300,-300,443.62,0
300,-300,399.61,0
300,-300,341.89,0
300,-300,250.96,0
300,-300,143.11,0
300,-300,-0.36,0
300,-300,-162.42,0
300,-300,-358.41,0
300,-300,-566.74,0
300,-300,-800.33,0
300,-300,-1034.16,0
300,-300,-1280.27,0
300,-300,-1512.97,0
300,-300,-1744.81,0
300,-300,-1952.91,0
300,-300,-2153.27,0
300,-300,-2325.88,0
300,-300,-2489.35,0
300,-300,-2626.06,0
300,-300,-2755.47,0
300,-300,-2858.95,0
300,-300,-2954.49,0
300,-300,-3023.39,0
300,-300,-3081.49,0
300,-300,-3108.52,0
300,-300,-3121.93,0
300,-300,-3102.28,0
300,-300,-3068.42,0
300,-300,-3004.26,0
300,-300,-2931.77,0
300,-300,-2838.06,0
300,-300,-2745.79,0
300,-300,-2643.77,0
300,-300,-2553.88,0
300,-300,-2462.25,0
300,-300,-2386.21,0
300,-300,-2310.45,0
300,-300,-2251.60,0
300,-300,-2190.76,0
300,-300,-2142.09,0
300,-300,-2086.57,0
300,-300,-2039.91,0
300,-300,-1982.86,0
300,-300,-1933.85,0
300,-300,-1872.99,0
300,-300,-1816.97,0
300,-300,-1749.01,0
300,-300,-1684.66,0
300,-300,-1604.41,0
300,-300,-1523.92,0
300,-300,-1423.81,0
300,-300,-1319.72,0
300,-300,-1192.92,0
300,-300,-1061.45,0
300,-300,-909.01,0
300,-300,-755.75,0
300,-300,-589.61,0
300,-300,-431.96,0
300,-300,-275.48,0
300,-300,-139.12,0
300,-300,-8.75,0
300,-300,92.17,0
300,-300,180.24,0
300,-300,237.29,0
300,-300,280.09,0
300,-300,291.60,0
300,-300,291.64,0
300,-300,262.74,0
300,-300,222.51,0
300,-300,151.18,0
300,-300,67.07,0
300,-300,-50.14,0
300,-300,-182.15,0
300,-300,-347.27,0
300,-300,-526.28,0
300,-300,-733.48,0
300,-300,-945.81,0
300,-300,-1176.01,0
300,-300,-1400.36,0
300,-300,-1630.17,0
300,-300,-1842.63,0
300,-300,-2051.02,0
300,-300,-2235.23,0
300,-300,-2411.04,0
300,-300,-2561.42,0
300,-300,-2703.42,0
300,-300,-2820.03,0
300,-300,-2929.26,0
300,-300,-3012.89,0
300,-300,-3086.96,0
300,-300,-3132.98,0
300,-300,-3166.30,0
300,-300,-3168.13,0
300,-300,-3155.10,0
300,-300,-3105.22,0
300,-300,-3040.41,0
300,-300,-2943.84,0
300,-300,-2837.09,0
300,-300,-2707.65,0
300,-300,-2580.07,0
300,-300,-2443.23,0
300,-300,-2320.45,0
300,-300,-2200.66,0
300,-300,-2105.35,0
300,-300,-2020.79,0
300,-300,-1965.14,0
300,-300,-1919.76,0
300,-300,-1899.21,0
300,-300,-1882.19,0
300,-300,-1879.51,0
300,-300,-1867.85,0
300,-300,-1856.67,0
300,-300,-1822.98,0
300,-300,-1778.06,0
300,-300,-1701.46,0
300,-300,-1608.95,0
300,-300,-1482.08,0
300,-300,-1341.32,0
300,-300,-1173.52,0
300,-300,-1001.35,0
300,-300,-814.72,0
300,-300,-636.63,0
300,-300,-457.79,0
300,-300,-299.43,0
300,-300,-150.97,0
300,-300,-30.12,0
300,-300,74.44,0
300,-300,148.57,0
300,-300,208.03,0
300,-300,237.19,0
300,-300,251.74,0
300,-300,236.10,0
300,-300,205.10,0
300,-300,141.37,0
300,-300,61.48,0
300,-300,-52.11,0
300,-300,-184.40,0
300,-300,-347.69,0
300,-300,-525.50,0
300,-300,-728.39,0
300,-300,-936.20,0
300,-300,-1157.93,0
300,-300,-1372.35,0
300,-300,-1589.48,0
300,-300,-1788.21,0
300,-300,-1980.14,0
300,-300,-2149.31,0
300,-300,-2309.07,0
300,-300,-2445.35,0
300,-300,-2574.40,0
300,-300,-2681.34,0
300,-300,-2783.41,0
300,-300,-2863.76,0
300,-300,-2938.39,0
300,-300,-2988.01,0
300,-300,-3025.12,0
300,-300,-3030.83,0
300,-300,-3019.48,0
300,-300,-2973.91,0
300,-300,-2909.87,0
300,-300,-2813.86,0
300,-300,-2706.21,0
300,-300,-2576.71,0
300,-300,-2444.40,0
300,-300,-2306.34,0
300,-300,-2182.37,0
300,-300,-2064.47,0
300,-300,-1973.10,0
300,-300,-1895.64,0
300,-300,-1847.72,0
300,-300,-1812.92,0
300,-300,-1802.63,0
300,-300,-1796.96,0
300,-300,-1802.19,0
300,-300,-1799.43,0
300,-300,-1794.09,0
300,-300,-1766.53,0
300,-300,-1725.93,0
300,-300,-1654.75,0
300,-300,-1565.54,0
300,-300,-1444.85,0
300,-300,-1309.23,0
300,-300,-1149.46,0
300,-300,-985.08,0
300,-300,-806.77,0
300,-300,-638.64,0
300,-300,-469.32,0
300,-300,-318.73,0
300,-300,-175.57,0
300,-300,-56.66,0
300,-300,51.02,0
300,-300,133.13,0
300,-300,202.71,0
300,-300,247.42,0
300,-300,280.34,0
300,-300,287.68,0
300,-300,281.76,0
300,-300,247.18,0
300,-300,195.71,0
300,-300,112.39,0
300,-300,9.36,0
300,-300,-126.07,0
300,-300,-280.40,0
300,-300,-462.21,0
300,-300,-654.14,0
300,-300,-864.37,0
300,-300,-1072.89,0
300,-300,-1288.46,0
300,-300,-1492.26,0
300,-300,-1694.49,0
300,-300,-1877.85,0
300,-300,-2055.65,0
300,-300,-2215.09,0
300,-300,-2368.43,0
300,-300,-2503.50,0
300,-300,-2632.65,0
300,-300,-2741.84,0
300,-300,-2841.75,0
300,-300,-2916.58,0
300,-300,-2975.99,0
300,-300,-3004.27,0
300,-300,-3012.80,0
300,-300,-2990.09,0
300,-300,-2950.58,0
300,-300,-2885.49,0
300,-300,-2814.48,0
300,-300,-2731.35,0
300,-300,-2655.35,0
300,-300,-2579.42,0
300,-300,-2519.24,0
300,-300,-2463.62,0
300,-300,-2423.65,0
300,-300,-2377.96,0
300,-300,-2340.15,0
300,-300,-2289.19,0
300,-300,-2233.77,0
300,-300,-2158.85,0
300,-300,-2075.57,0
300,-300,-1973.79,0
300,-300,-1869.62,0
300,-300,-1756.93,0
300,-300,-1653.97,0
300,-300,-1552.25,0
300,-300,-1469.19,0
300,-300,-1391.70,0
300,-300,-1331.91,0
300,-300,-1273.54,0
300,-300,-1222.51,0
300,-300,-1160.56,0
300,-300,-1093.10,0
300,-300,-1004.22,0
300,-300,-903.97,0
300,-300,-780.69,0
300,-300,-648.66,0
300,-300,-505.42,0
300,-300,-364.57,0
300,-300,-222.65,0
300,-300,-97.22,0
300,-300,18.17,0
300,-300,109.88,0
300,-300,188.55,0
300,-300,243.17,0
300,-300,287.63,0
300,-300,312.91,0
300,-300,328.77,0
300,-300,326.70,0
300,-300,314.47,0
300,-300,278.49,0
300,-300,225.31,0
300,-300,141.38,0
300,-300,34.06,0
300,-300,-109.02,0
300,-300,-275.29,0
300,-300,-471.99,0
300,-300,-683.58,0
300,-300,-913.04,0
300,-300,-1143.50,0
300,-300,-1377.25,0
300,-300,-1598.28,0
300,-300,-1811.95,0
300,-300,-2005.81,0
300,-300,-2190.16,0
300,-300,-2354.72,0
300,-300,-2509.88,0
300,-300,-2647.97,0
300,-300,-2778.15,0
300,-300,-2890.73,0
300,-300,-2992.13,0
300,-300,-3070.01,0
300,-300,-3130.77,0
300,-300,-3161.76,0
300,-300,-3171.20,0
300,-300,-3149.96,0
300,-300,-3108.52,0
300,-300,-3044.36,0
300,-300,-2972.93,0
300,-300,-2892.94,0
300,-300,-2822.22,0
300,-300,-2758.83,0
300,-300,-2717.37,0
300,-300,-2691.08,0
300,-300,-2687.21,0
300,-300,-2693.83,0
300,-300,-2710.85,0
300,-300,-2721.11,0
300,-300,-2724.15,0
300,-300,-2701.58,0
300,-300,-2655.59,0
300,-300,-2573.38,0
300,-300,-2462.93,0
300,-300,-2318.05,0
300,-300,-2155.68,0
300,-300,-1975.77,0
300,-300,-1796.10,0
300,-300,-1619.59,0
300,-300,-1462.84,0
300,-300,-1324.43,0
300,-300,-1215.76,0
300,-300,-1129.30,0
300,-300,-1069.29,0
300,-300,-1022.24,0
300,-300,-989.14,0
300,-300,-953.27,0
300,-300,-920.17,0
300,-300,-871.06,0
300,-300,-810.59,0
300,-300,-730.47,0
300,-300,-639.19,0
300,-300,-531.84,0
300,-300,-419.23,0
300,-300,-299.43,0
300,-300,-182.44,0
300,-300,-65.61,0
300,-300,40.05,0
300,-300,140.42,0
300,-300,226.96,0
300,-300,304.80,0
300,-300,367.17,0
300,-300,418.39,0
300,-300,450.98,0
300,-300,466.57,0
300,-300,457.80,0
300,-300,427.01,0
300,-300,364.84,0
300,-300,274.22,0
300,-300,149.03,0
300,-300,-4.74,0
300,-300,-189.88,0
300,-300,-396.63,0
300,-300,-624.33,0
300,-300,-861.58,0
300,-300,-1106.24,0
300,-300,-1344.97,0
300,-300,-1578.61,0
300,-300,-1797.16,0
300,-300,-2002.48,0
300,-300,-2188.60,0
300,-300,-2360.05,0
300,-300,-2512.23,0
300,-300,-2650.54,0
300,-300,-2770.60,0
300,-300,-2877.49,0
300,-300,-2963.58,0
300,-300,-3033.15,0
300,-300,-3079.71,0
300,-300,-3105.18,0
300,-300,-3105.76,0
300,-300,-3085.46,0
300,-300,-3043.08,0
300,-300,-2987.35,0
300,-300,-2920.45,0
300,-300,-2853.52,0
300,-300,-2788.50,0
300,-300,-2737.16,0
300,-300,-2700.31,0
300,-300,-2683.88,0
300,-300,-2684.27,0
300,-300,-2700.87,0
300,-300,-2720.23,0
300,-300,-2739.98,0
300,-300,-2746.49,0
300,-300,-2734.20,0
300,-300,-2692.06,0
300,-300,-2619.03,0
300,-300,-2511.05,0
300,-300,-2373.51,0
300,-300,-2209.31,0
300,-300,-2029.90,0
300,-300,-1842.49,0
300,-300,-1660.18,0
300,-300,-1489.89,0
300,-300,-1340.55,0
300,-300,-1215.54,0
300,-300,-1116.54,0
300,-300,-1038.62,0
300,-300,-980.18,0
300,-300,-930.85,0
300,-300,-885.72,0
300,-300,-834.18,0
300,-300,-772.41,0
300,-300,-693.49,0
300,-300,-599.16,0
300,-300,-485.44,0
300,-300,-357.73,0
300,-300,-217.79,0
300,-300,-73.24,0
300,-300,73.37,0
300,-300,214.45,0
300,-300,348.15,0
300,-300,468.71,0
300,-300,576.64,0
300,-300,667.35,0
300,-300,742.37,0
300,-300,799.06,0
300,-300,837.58,0
300,-300,855.26,0
300,-300,852.21,0
300,-300,824.85,0
300,-300,773.33,0
300,-300,695.18,0
300,-300,592.12,0
300,-300,464.39,0
300,-300,315.10,0
300,-300,146.62,0
300,-300,-35.11,0
300,-300,-227.00,0
300,-300,-422.35,0
300,-300,-620.67,0
300,-300,-817.25,0
300,-300,-1010.00,0
300,-300,-1199.47,0
300,-300,-1383.52,0
300,-300,-1565.34,0
300,-300,-1744.17,0
300,-300,-1921.36,0
300,-300,-2094.79,0
300,-300,-2264.04,0
300,-300,-2426.94,0
300,-300,-2579.95,0
300,-300,-2720.38,0
300,-300,-2847.12,0
300,-300,-2957.12,0
300,-300,-3052.27,0
300,-300,-3133.11,0
300,-300,-3204.03,0
300,-300,-3268.21,0
300,-300,-3331.32,0
300,-300,-3394.39,0
300,-300,-3461.03,0
300,-300,-3530.47,0
300,-300,-3601.88,0
300,-300,-3669.48,0
300,-300,-3728.54,0
300,-300,-3771.99,0
300,-300,-3794.20,0
300,-300,-3789.09,0
300,-300,-3755.01,0
300,-300,-3690.06,0
300,-300,-3597.34,0
300,-300,-3480.75,0
300,-300,-3347.58,0
300,-300,-3202.73,0
300,-300,-3055.08,0
300,-300,-2908.20,0
300,-300,-2766.99,0
300,-300,-2630.70,0
300,-300,-2499.88,0
300,-300,-2368.57,0
300,-300,-2235.04,0
300,-300,-2095.49,0
300,-300,-1946.03,0
300,-300,-1781.32,0
300,-300,-1603.58,0
300,-300,-1411.65,0
300,-300,-1211.46,0
300,-300,-1003.76,0
300,-300,-796.28,0
300,-300,-589.88,0
300,-300,-391.71,0
300,-300,-200.88,0
300,-300,-22.51,0
300,-300,145.88,0
300,-300,300.15,0
300,-300,442.22,0
300,-300,567.17,0
300,-300,675.48,0
300,-300,758.47,0
300,-300,816.29,0
300,-300,840.20,0
300,-300,829.55,0
300,-300,777.58,0
300,-300,687.82,0
300,-300,557.42,0
300,-300,394.72,0
300,-300,201.07,0
300,-300,-11.99,0
300,-300,-242.52,0
300,-300,-477.20,0
300,-300,-714.86,0
300,-300,-946.14,0
300,-300,-1171.98,0
300,-300,-1387.31,0
300,-300,-1596.17,0
300,-300,-1794.39,0
300,-300,-1986.96,0
300,-300,-2168.32,0
300,-300,-2342.55,0
300,-300,-2500.90,0
300,-300,-2645.22,0
300,-300,-2765.38,0
300,-300,-2862.70,0
300,-300,-2929.61,0
300,-300,-2969.50,0
300,-300,-2978.71,0
300,-300,-2966.04,0
300,-300,-2932.67,0
300,-300,-2891.05,0
300,-300,-2843.26,0
300,-300,-2799.73,0
300,-300,-2760.61,0
300,-300,-2734.41,0
300,-300,-2713.62,0
300,-300,-2700.95,0
300,-300,-2683.71,0
300,-300,-2661.99,0
300,-300,-2621.95,0
300,-300,-2564.35,0
300,-300,-2481.52,0
300,-300,-2378.44,0
300,-300,-2251.93,0
300,-300,-2114.87,0
300,-300,-1965.81,0
300,-300,-1820.79,0
300,-300,-1678.08,0
300,-300,-1550.87,0
300,-300,-1433.23,0
300,-300,-1331.64,0
300,-300,-1236.45,0
300,-300,-1151.42,0
300,-300,-1062.84,0
300,-300,-973.12,0
300,-300,-869.96,0
300,-300,-759.68,0
300,-300,-634.67,0
300,-300,-505.36,0
300,-300,-368.47,0
300,-300,-238.21,0
300,-300,-111.33,0
300,-300,-1.22,0
300,-300,96.28,0
300,-300,171.27,0
300,-300,232.32,0
300,-300,270.54,0
300,-300,297.85,0
300,-300,305.68,0
300,-300,302.27,0
300,-300,279.72,0
300,-300,244.60,0
300,-300,184.08,0
300,-300,105.56,0
300,-300,-4.74,0
300,-300,-138.24,0
300,-300,-306.07,0
300,-300,-495.26,0
300,-300,-712.53,0
300,-300,-941.31,0
300,-300,-1184.64,0
300,-300,-1423.45,0
300,-300,-1661.59,0
300,-300,-1880.72,0
300,-300,-2087.50,0
300,-300,-2267.68,0
300,-300,-2432.36,0
300,-300,-2569.87,0
300,-300,-2693.69,0
300,-300,-2795.02,0
300,-300,-2886.40,0
300,-300,-2955.25,0
300,-300,-3014.97,0
300,-300,-3051.62,0
300,-300,-3076.35,0
300,-300,-3074.26,0
300,-300,-3057.39,0
300,-300,-3013.09,0
300,-300,-2957.29,0
300,-300,-2881.54,0
300,-300,-2805.66,0
300,-300,-2720.65,0
300,-300,-2649.96,0
300,-300,-2585.04,0
300,-300,-2544.22,0
300,-300,-2514.65,0
300,-300,-2509.11,0
300,-300,-2508.41,0
300,-300,-2519.86,0
300,-300,-2512.99,0
300,-300,-2499.96,0
300,-300,-2454.70,0
300,-300,-2386.92,0
300,-300,-2279.07,0
300,-300,-2147.65,0
300,-300,-1983.39,0
300,-300,-1810.00,0
300,-300,-1623.71,0
300,-300,-1451.13,0
300,-300,-1287.86,0
300,-300,-1156.91,0
300,-300,-1047.03,0
300,-300,-975.06,0
300,-300,-921.52,0
300,-300,-894.31,0
300,-300,-869.38,0
300,-300,-851.54,0
300,-300,-816.59,0
300,-300,-774.12,0
300,-300,-703.00,0
300,-300,-618.51,0
300,-300,-508.62,0
300,-300,-392.66,0
300,-300,-261.45,0
300,-300,-139.16,0
300,-300,-14.95,0
300,-300,89.43,0
300,-300,188.04,0
300,-300,261.88,0
300,-300,329.35,0
300,-300,374.83,0
300,-300,415.35,0
300,-300,436.29,0
300,-300,453.32,0
300,-300,447.12,0
300,-300,430.46,0
300,-300,382.10,0
300,-300,313.98,0
300,-300,203.97,0
300,-300,68.34,0
300,-300,-110.92,0
300,-300,-313.41,0
300,-300,-551.56,0
300,-300,-800.65,0
300,-300,-1068.99,0
300,-300,-1330.68,0
300,-300,-1594.31,0
300,-300,-1835.40,0
300,-300,-2068.46,0
300,-300,-2272.89,0
300,-300,-2464.52,0
300,-300,-2628.93,0
300,-300,-2784.53,0
300,-300,-2915.48,0
300,-300,-3039.69,0
300,-300,-3138.37,0
300,-300,-3227.48,0
300,-300,-3285.68,0
300,-300,-3328.03,0
300,-300,-3334.41,0
300,-300,-3320.34,0
300,-300,-3269.94,0
300,-300,-3204.73,0
300,-300,-3112.67,0
300,-300,-3020.06,0
300,-300,-2917.99,0
300,-300,-2833.95,0
300,-300,-2757.45,0
300,-300,-2712.13,0
300,-300,-2681.02,0
300,-300,-2679.28,0
300,-300,-2683.73,0
300,-300,-2703.97,0
300,-300,-2710.57,0
300,-300,-2711.83,0
300,-300,-2678.84,0
300,-300,-2624.13,0
300,-300,-2523.13,0
300,-300,-2399.06,0
300,-300,-2236.59,0
300,-300,-2063.02,0
300,-300,-1869.41,0
300,-300,-1687.70,0
300,-300,-1507.99,0
300,-300,-1358.23,0
300,-300,-1224.97,0
300,-300,-1128.98,0
300,-300,-1048.89,0
300,-300,-999.25,0
300,-300,-951.96,0
300,-300,-924.31,0
300,-300,-882.76,0
300,-300,-840.61,0
300,-300,-774.83,0
300,-300,-702.72,0
300,-300,-606.19,0
300,-300,-506.77,0
300,-300,-390.17,0
300,-300,-279.83,0
300,-300,-162.57,0
300,-300,-61.01,0
300,-300,39.53,0
300,-300,118.25,0
300,-300,192.79,0
300,-300,244.24,0
300,-300,291.21,0
300,-300,315.49,0
300,-300,333.73,0
300,-300,327.10,0
300,-300,312.80,0
300,-300,267.92,0
300,-300,208.97,0
300,-300,114.73,0
300,-300,2.94,0
300,-300,-145.40,0
300,-300,-309.46,0
300,-300,-504.30,0
300,-300,-706.72,0
300,-300,-929.69,0
300,-300,-1146.34,0
300,-300,-1370.35,0
300,-300,-1577.27,0
300,-300,-1781.20,0
300,-300,-1960.54,0
300,-300,-2133.15,0
300,-300,-2280.07,0
300,-300,-2420.52,0
300,-300,-2536.94,0
300,-300,-2649.52,0
300,-300,-2737.54,0
300,-300,-2820.62,0
300,-300,-2878.11,0
300,-300,-2926.31,0
300,-300,-2945.24,0
300,-300,-2951.93,0
300,-300,-2928.74,0
300,-300,-2895.43,0
300,-300,-2837.37,0
300,-300,-2776.69,0
300,-300,-2700.09,0
300,-300,-2631.19,0
300,-300,-2556.59,0
300,-300,-2497.49,0
300,-300,-2437.41,0
300,-300,-2393.85,0
300,-300,-2347.13,0
300,-300,-2310.55,0
300,-300,-2265.06,0
300,-300,-2223.89,0
300,-300,-2167.49,0
300,-300,-2111.32,0
300,-300,-2038.59,0
300,-300,-1967.95,0
300,-300,-1884.23,0
300,-300,-1807.29,0
300,-300,-1722.33,0
300,-300,-1648.36,0
300,-300,-1568.17,0
300,-300,-1498.30,0
300,-300,-1420.12,0
300,-300,-1348.21,0
300,-300,-1262.77,0
300,-300,-1178.68,0
300,-300,-1077.45,0
300,-300,-975.95,0
300,-300,-858.70,0
300,-300,-746.28,0
300,-300,-623.87,0
300,-300,-516.00,0
300,-300,-406.59,0
300,-300,-316.79,0
300,-300,-232.73,0
300,-300,-173.24,0
300,-300,-121.76,0
300,-300,-95.40,0
300,-300,-77.09,0
300,-300,-83.82,0
300,-300,-98.63,0
300,-300,-138.94,0
300,-300,-189.59,0
300,-300,-267.46,0
300,-300,-358.27,0
300,-300,-477.96,0
300,-300,-609.77,0
300,-300,-767.33,0
300,-300,-932.16,0
300,-300,-1115.03,0
300,-300,-1296.06,0
300,-300,-1484.20,0
300,-300,-1660.23,0
300,-300,-1834.33,0
300,-300,-1989.31,0
300,-300,-2137.77,0
300,-300,-2264.42,0
300,-300,-2383.92,0
300,-300,-2482.83,0
300,-300,-2575.10,0
300,-300,-2647.94,0
300,-300,-2713.13,0
300,-300,-2757.46,0
300,-300,-2792.58,0
300,-300,-2803.57,0
300,-300,-2803.19,0
300,-300,-2778.17,0
300,-300,-2743.26,0
300,-300,-2689.35,0
300,-300,-2632.10,0
300,-300,-2563.72,0
300,-300,-2501.10,0
300,-300,-2435.35,0
300,-300,-2382.04,0
300,-300,-2329.69,0
300,-300,-2289.84,0
300,-300,-2248.00,0
300,-300,-2212.73,0
300,-300,-2166.22,0
300,-300,-2118.65,0
300,-300,-2054.82,0
300,-300,-1985.40,0
300,-300,-1898.83,0
300,-300,-1809.47,0
300,-300,-1708.99,0
300,-300,-1613.27,0
300,-300,-1514.65,0
300,-300,-1427.29,0
300,-300,-1340.87,0
300,-300,-1266.57,0
300,-300,-1191.17,0
300,-300,-1122.63,0
300,-300,-1046.27,0
300,-300,-968.97,0
300,-300,-876.62,0
300,-300,-778.65,0
300,-300,-664.42,0
300,-300,-547.09,0
300,-300,-419.95,0
300,-300,-297.81,0
300,-300,-177.02,0
300,-300,-70.53,0
300,-300,27.98,0
300,-300,105.58,0
300,-300,171.86,0
300,-300,217.41,0
300,-300,253.31,0
300,-300,271.61,0
300,-300,282.03,0
300,-300,275.45,0
300,-300,260.09,0
300,-300,223.92,0
300,-300,173.05,0
300,-300,95.83,0
300,-300,-2.05,0
300,-300,-130.25,0
300,-300,-279.80,0
300,-300,-456.98,0
300,-300,-649.44,0
300,-300,-860.36,0
300,-300,-1073.69,0
300,-300,-1292.58,0
300,-300,-1502.38,0
300,-300,-1706.26,0
300,-300,-1893.56,0
300,-300,-2070.22,0
300,-300,-2228.06,0
300,-300,-2375.63,0
300,-300,-2505.18,0
300,-300,-2625.37,0
300,-300,-2727.35,0
300,-300,-2817.85,0
300,-300,-2887.70,0
300,-300,-2941.72,0
300,-300,-2970.53,0
300,-300,-2979.50,0
300,-300,-2961.64,0
300,-300,-2926.79,0
300,-300,-2871.33,0
300,-300,-2807.38,0
300,-300,-2735.83,0
300,-300,-2669.40,0
300,-300,-2609.62,0
300,-300,-2567.02,0
300,-300,-2538.51,0
300,-300,-2529.37,0
300,-300,-2530.14,0
300,-300,-2535.58,0
300,-300,-2536.34,0
300,-300,-2527.16,0
300,-300,-2495.58,0
300,-300,-2440.36,0
300,-300,-2353.53,0
300,-300,-2240.68,0
300,-300,-2101.81,0
300,-300,-1948.43,0
300,-300,-1785.70,0
300,-300,-1628.37,0
300,-300,-1481.72,0
300,-300,-1356.36,0
300,-300,-1254.12,0
300,-300,-1179.53,0
300,-300,-1125.90,0
300,-300,-1090.79,0
300,-300,-1062.96,0
300,-300,-1036.37,0
300,-300,-999.93,0
300,-300,-950.23,0
300,-300,-880.61,0
300,-300,-793.77,0
300,-300,-687.65,0
300,-300,-569.63,0
300,-300,-443.04,0
300,-300,-317.24,0
300,-300,-195.54,0
300,-300,-85.54,0
300,-300,12.31,0
300,-300,94.76,0
300,-300,162.99,0
300,-300,216.03,0
300,-300,257.30,0
300,-300,285.77,0
300,-300,302.52,0
300,-300,304.55,0
300,-300,290.02,0
300,-300,254.02,0
300,-300,192.55,0
300,-300,102.30,0
300,-300,-18.16,0
300,-300,-169.66,0
300,-300,-349.26,0
300,-300,-553.46,0
300,-300,-775.36,0
300,-300,-1008.28,0
300,-300,-1244.00,0
300,-300,-1475.51,0
300,-300,-1698.52,0
300,-300,-1907.24,0
300,-300,-2101.33,0
300,-300,-2278.34,0
300,-300,-2440.13,0
300,-300,-2587.45,0
300,-300,-2721.83,0
300,-300,-2842.15,0
300,-300,-2949.31,0
300,-300,-3039.30,0
300,-300,-3112.40,0
300,-300,-3162.63,0
300,-300,-3190.51,0
300,-300,-3192.36,0
300,-300,-3171.05,0
300,-300,-3128.51,0
300,-300,-3071.14,0
300,-300,-3003.73,0
300,-300,-2936.43,0
300,-300,-2873.80,0
300,-300,-2826.73,0
300,-300,-2795.25,0
300,-300,-2784.83,0
300,-300,-2790.51,0
300,-300,-2810.60,0
300,-300,-2834.02,0
300,-300,-2854.72,0
300,-300,-2859.78,0
300,-300,-2843.32,0
300,-300,-2794.68,0
300,-300,-2708.96,0
300,-300,-2587.15,0
300,-300,-2433.72,0
300,-300,-2251.67,0
300,-300,-2054.84,0
300,-300,-1849.48,0
300,-300,-1651.60,0
300,-300,-1466.69,0
300,-300,-1307.77,0
300,-300,-1175.47,0
300,-300,-1074.66,0
300,-300,-999.04,0
300,-300,-952.41,0
300,-300,-918.02,0
300,-300,-893.18,0
300,-300,-864.04,0
300,-300,-829.53,0
300,-300,-778.27,0
300,-300,-713.59,0
300,-300,-628.29,0
300,-300,-531.05,0
300,-300,-418.41,0
300,-300,-301.86,0
300,-300,-180.74,0
300,-300,-66.61,0
300,-300,43.00,0
300,-300,137.52,0
300,-300,222.11,0
300,-300,288.50,0
300,-300,342.57,0
300,-300,377.60,0
300,-300,400.07,0
