Tran,San,Gia_tri_PPG,Truc_0
300,-300,-2258.62,0
300,-300,-2320.36,0
300,-300,-2374.13,0
300,-300,-2418.76,0
300,-300,-2453.71,0
300,-300,-2477.23,0
300,-300,-2488.52,0
300,-300,-2486.91,0
300,-300,-2473.81,0
300,-300,-2450.32,0
300,-300,-2419.27,0
300,-300,-2384.16,0
300,-300,-2349.20,0
300,-300,-2318.58,0
300,-300,-2295.92,0
300,-300,-2283.58,0
300,-300,-2283.28,0
300,-300,-2294.17,0
300,-300,-2314.53,0
300,-300,-2340.61,0
300,-300,-2367.59,0
300,-300,-2389.85,0
300,-300,-2402.51,0
300,-300,-2396.42,0
300,-300,-2372.21,0
300,-300,-2325.56,0
300,-300,-2257.45,0
300,-300,-2169.89,0
300,-300,-2066.80,0
300,-300,-1953.82,0
300,-300,-1837.76,0
300,-300,-1725.36,0
300,-300,-1622.82,0
300,-300,-1535.85,0
300,-300,-1466.25,0
300,-300,-1418.45,0
300,-300,-1389.37,0
300,-300,-1376.05,0
300,-300,-1374.43,0
300,-300,-1378.83,0
300,-300,-1384.18,0
300,-300,-1384.62,0
300,-300,-1375.85,0
300,-300,-1355.66,0
300,-300,-1321.40,0
300,-300,-1274.55,0
300,-300,-1215.67,0
300,-300,-1147.94,0
300,-300,-1075.16,0
300,-300,-1000.66,0
300,-300,-927.68,0
300,-300,-858.84,0
300,-300,-796.14,0
300,-300,-741.00,0
300,-300,-693.65,0
300,-300,-655.47,0
300,-300,-626.10,0
300,-300,-606.72,0
300,-300,-598.64,0
300,-300,-603.27,0
300,-300,-622.52,0
300,-300,-657.96,0
300,-300,-711.00,0
300,-300,-781.73,0
300,-300,-870.65,0
300,-300,-975.10,0
300,-300,-1093.02,0
300,-300,-1219.96,0
300,-300,-1352.66,0
300,-300,-1485.82,0
300,-300,-1616.12,0
300,-300,-1740.20,0
300,-300,-1856.35,0
300,-300,-1963.21,0
300,-300,-2061.38,0
300,-300,-2150.16,0
300,-300,-2231.57,0
300,-300,-2305.67,0
300,-300,-2372.98,0
300,-300,-2431.98,0
300,-300,-2482.10,0
300,-300,-2520.95,0
300,-300,-2547.85,0
300,-300,-2560.34,0
300,-300,-2558.23,0
300,-300,-2541.38,0
300,-300,-2512.71,0
300,-300,-2474.81,0
300,-300,-2432.08,0
300,-300,-2389.11,0
300,-300,-2351.17,0
300,-300,-2321.54,0
300,-300,-2305.44,0
300,-300,-2302.35,0
300,-300,-2312.90,0
300,-300,-2334.46,0
300,-300,-2362.96,0
300,-300,-2393.78,0
300,-300,-2421.34,0
300,-300,-2439.48,0
300,-300,-2443.30,0
300,-300,-2429.09,0
300,-300,-2390.64,0
300,-300,-2331.43,0
300,-300,-2251.50,0
300,-300,-2154.22,0
300,-300,-2044.42,0
300,-300,-1927.78,0
300,-300,-1811.32,0
300,-300,-1700.86,0
300,-300,-1602.65,0
300,-300,-1520.57,0
300,-300,-1457.07,0
300,-300,-1412.73,0
300,-300,-1389.68,0
300,-300,-1381.04,0
300,-300,-1383.36,0
300,-300,-1391.57,0
300,-300,-1400.23,0
300,-300,-1404.18,0
300,-300,-1398.66,0
300,-300,-1379.97,0
300,-300,-1347.10,0
300,-300,-1299.14,0
300,-300,-1237.36,0
300,-300,-1165.09,0
300,-300,-1085.49,0
300,-300,-1002.37,0
300,-300,-919.77,0
300,-300,-840.91,0
300,-300,-769.01,0
300,-300,-705.68,0
300,-300,-651.98,0
300,-300,-609.01,0
300,-300,-576.63,0
300,-300,-556.28,0
300,-300,-548.46,0
300,-300,-554.43,0
300,-300,-575.59,0
300,-300,-613.11,0
300,-300,-668.65,0
300,-300,-743.10,0
300,-300,-835.24,0
300,-300,-943.97,0
300,-300,-1066.57,0
300,-300,-1199.20,0
300,-300,-1337.86,0
300,-300,-1477.73,0
300,-300,-1615.06,0
300,-300,-1745.94,0
300,-300,-1868.20,0
300,-300,-1980.92,0
300,-300,-2083.65,0
300,-300,-2176.72,0
300,-300,-2261.65,0
300,-300,-2338.46,0
300,-300,-2408.51,0
300,-300,-2470.50,0
300,-300,-2524.30,0
300,-300,-2567.69,0
300,-300,-2599.04,0
300,-300,-2616.62,0
300,-300,-2619.68,0
300,-300,-2607.74,0
300,-300,-2582.76,0
300,-300,-2547.67,0
300,-300,-2506.35,0
300,-300,-2463.74,0
300,-300,-2424.32,0
300,-300,-2392.97,0
300,-300,-2373.34,0
300,-300,-2366.75,0
300,-300,-2374.26,0
300,-300,-2392.65,0
300,-300,-2419.44,0
300,-300,-2449.71,0
300,-300,-2477.36,0
300,-300,-2496.93,0
300,-300,-2502.70,0
300,-300,-2491.02,0
300,-300,-2455.02,0
300,-300,-2397.28,0
300,-300,-2318.11,0
300,-300,-2218.73,0
300,-300,-2105.42,0
300,-300,-1983.33,0
300,-300,-1858.55,0
300,-300,-1738.38,0
300,-300,-1628.19,0
300,-300,-1533.50,0
300,-300,-1457.89,0
300,-300,-1402.53,0
300,-300,-1365.98,0
300,-300,-1350.11,0
300,-300,-1346.33,0
300,-300,-1350.28,0
300,-300,-1356.52,0
300,-300,-1359.09,0
300,-300,-1353.32,0
300,-300,-1334.83,0
300,-300,-1301.77,0
300,-300,-1252.10,0
300,-300,-1187.50,0
300,-300,-1111.20,0
300,-300,-1025.74,0
300,-300,-935.75,0
300,-300,-846.03,0
300,-300,-760.07,0
300,-300,-681.53,0
300,-300,-612.31,0
300,-300,-553.84,0
300,-300,-507.15,0
300,-300,-472.46,0
300,-300,-449.63,0
300,-300,-439.29,0
300,-300,-442.53,0
300,-300,-460.45,0
300,-300,-494.41,0
300,-300,-545.97,0
300,-300,-615.74,0
300,-300,-703.95,0
300,-300,-810.36,0
300,-300,-931.97,0
300,-300,-1066.11,0
300,-300,-1208.95,0
300,-300,-1355.33,0
300,-300,-1501.10,0
300,-300,-1642.34,0
300,-300,-1775.90,0
300,-300,-1900.44,0
300,-300,-2015.06,0
300,-300,-2119.89,0
300,-300,-2215.61,0
300,-300,-2303.63,0
300,-300,-2384.62,0
300,-300,-2458.33,0
300,-300,-2523.79,0
300,-300,-2579.78,0
300,-300,-2624.31,0
300,-300,-2656.09,0
300,-300,-2672.73,0
300,-300,-2674.29,0
300,-300,-2661.31,0
300,-300,-2636.41,0
300,-300,-2603.22,0
300,-300,-2566.30,0
300,-300,-2530.84,0
300,-300,-2501.60,0
300,-300,-2482.61,0
300,-300,-2475.73,0
300,-300,-2480.65,0
300,-300,-2495.61,0
300,-300,-2516.21,0
300,-300,-2536.84,0
300,-300,-2551.55,0
300,-300,-2554.33,0
300,-300,-2540.29,0
300,-300,-2506.76,0
300,-300,-2452.61,0
300,-300,-2379.43,0
300,-300,-2291.37,0
300,-300,-2193.39,0
300,-300,-2092.22,0
300,-300,-1993.36,0
300,-300,-1902.73,0
300,-300,-1824.20,0
300,-300,-1759.41,0
300,-300,-1708.11,0
300,-300,-1668.23,0
300,-300,-1635.88,0
300,-300,-1606.50,0
300,-300,-1578.77,0
300,-300,-1545.29,0
300,-300,-1503.57,0
300,-300,-1452.93,0
300,-300,-1393.23,0
300,-300,-1325.75,0
300,-300,-1252.92,0
300,-300,-1177.16,0
300,-300,-1100.49,0
300,-300,-1026.68,0
300,-300,-956.65,0
300,-300,-892.46,0
300,-300,-834.99,0
300,-300,-784.24,0
300,-300,-740.96,0
300,-300,-705.70,0
300,-300,-679.04,0
300,-300,-662.10,0
300,-300,-657.20,0
300,-300,-665.29,0
300,-300,-687.59,0
300,-300,-726.25,0
300,-300,-781.34,0
300,-300,-852.29,0
300,-300,-938.25,0
300,-300,-1036.85,0
300,-300,-1144.89,0
300,-300,-1259.32,0
300,-300,-1377.35,0
300,-300,-1494.79,0
300,-300,-1609.46,0
300,-300,-1718.94,0
300,-300,-1822.18,0
300,-300,-1918.48,0
300,-300,-2007.85,0
300,-300,-2090.11,0
300,-300,-2165.44,0
300,-300,-2233.50,0
300,-300,-2294.60,0
300,-300,-2346.83,0
300,-300,-2389.56,0
300,-300,-2421.12,0
300,-300,-2441.06,0
300,-300,-2449.17,0
300,-300,-2445.63,0
300,-300,-2432.17,0
300,-300,-2410.98,0
300,-300,-2384.79,0
300,-300,-2357.93,0
300,-300,-2333.55,0
300,-300,-2314.87,0
300,-300,-2304.60,0
300,-300,-2303.13,0
300,-300,-2310.47,0
300,-300,-2324.71,0
300,-300,-2342.23,0
300,-300,-2359.20,0
300,-300,-2371.12,0
300,-300,-2370.47,0
300,-300,-2356.54,0
300,-300,-2326.26,0
300,-300,-2279.36,0
300,-300,-2216.40,0
300,-300,-2140.53,0
300,-300,-2056.17,0
300,-300,-1968.59,0
300,-300,-1882.93,0
300,-300,-1803.96,0
300,-300,-1735.85,0
300,-300,-1681.17,0
300,-300,-1640.48,0
300,-300,-1612.55,0
300,-300,-1594.49,0
300,-300,-1582.80,0
300,-300,-1572.99,0
300,-300,-1561.02,0
300,-300,-1542.94,0
300,-300,-1517.08,0
300,-300,-1480.90,0
300,-300,-1435.65,0
300,-300,-1381.36,0
300,-300,-1320.52,0
300,-300,-1255.36,0
300,-300,-1188.91,0
300,-300,-1123.15,0
300,-300,-1059.88,0
300,-300,-1000.57,0
300,-300,-946.72,0
300,-300,-897.08,0
300,-300,-853.72,0
300,-300,-815.33,0
300,-300,-783.47,0
300,-300,-759.04,0
300,-300,-744.44,0
300,-300,-740.39,0
300,-300,-749.69,0
300,-300,-773.57,0
300,-300,-813.54,0
300,-300,-869.22,0
300,-300,-941.13,0
300,-300,-1025.70,0
300,-300,-1121.17,0
300,-300,-1223.77,0
300,-300,-1330.46,0
300,-300,-1437.33,0
300,-300,-1541.62,0
300,-300,-1641.17,0
300,-300,-1734.48,0
300,-300,-1822.03,0
300,-300,-1902.90,0
300,-300,-1978.35,0
300,-300,-2048.83,0
300,-300,-2114.40,0
300,-300,-2174.53,0
300,-300,-2228.31,0
300,-300,-2273.77,0
300,-300,-2309.68,0
300,-300,-2334.59,0
300,-300,-2347.51,0
300,-300,-2347.17,0
300,-300,-2335.93,0
300,-300,-2315.41,0
300,-300,-2288.71,0
300,-300,-2259.59,0
300,-300,-2232.08,0
300,-300,-2210.14,0
300,-300,-2197.32,0
300,-300,-2194.65,0
300,-300,-2202.96,0
300,-300,-2220.01,0
300,-300,-2243.83,0
300,-300,-2270.16,0
300,-300,-2293.94,0
300,-300,-2310.54,0
300,-300,-2315.64,0
300,-300,-2306.24,0
300,-300,-2279.04,0
300,-300,-2235.23,0
300,-300,-2176.49,0
300,-300,-2105.61,0
300,-300,-2026.57,0
300,-300,-1944.49,0
300,-300,-1864.10,0
300,-300,-1790.01,0
300,-300,-1725.55,0
300,-300,-1672.46,0
300,-300,-1631.13,0
300,-300,-1601.01,0
300,-300,-1578.73,0
300,-300,-1564.73,0
300,-300,-1551.81,0
300,-300,-1537.35,0
300,-300,-1518.29,0
300,-300,-1492.99,0
300,-300,-1460.09,0
300,-300,-1419.15,0
300,-300,-1370.81,0
300,-300,-1316.80,0
300,-300,-1258.79,0
300,-300,-1198.89,0
300,-300,-1138.87,0
300,-300,-1081.08,0
300,-300,-1026.58,0
300,-300,-976.38,0
300,-300,-930.82,0
300,-300,-890.79,0
300,-300,-855.97,0
300,-300,-827.90,0
300,-300,-806.23,0
300,-300,-793.37,0
300,-300,-790.40,0
300,-300,-799.02,0
300,-300,-820.59,0
300,-300,-856.29,0
300,-300,-906.19,0
300,-300,-970.40,0
300,-300,-1047.20,0
300,-300,-1134.45,0
300,-300,-1228.58,0
300,-300,-1327.89,0
300,-300,-1428.15,0
300,-300,-1526.80,0
300,-300,-1621.79,0
300,-300,-1711.84,0
300,-300,-1795.74,0
300,-300,-1875.32,0
300,-300,-1949.36,0
300,-300,-2019.44,0
300,-300,-2085.22,0
300,-300,-2146.47,0
300,-300,-2202.55,0
300,-300,-2252.16,0
300,-300,-2293.24,0
300,-300,-2324.44,0
300,-300,-2343.72,0
300,-300,-2351.58,0
300,-300,-2347.53,0
300,-300,-2333.44,0
300,-300,-2312.29,0
300,-300,-2286.79,0
300,-300,-2260.78,0
300,-300,-2238.27,0
300,-300,-2222.22,0
300,-300,-2214.73,0
300,-300,-2216.32,0
300,-300,-2227.16,0
300,-300,-2245.48,0
300,-300,-2267.98,0
300,-300,-2291.08,0
300,-300,-2311.48,0
300,-300,-2325.03,0
300,-300,-2328.88,0
300,-300,-2320.29,0
300,-300,-2298.33,0
300,-300,-2262.69,0
300,-300,-2211.97,0
300,-300,-2150.85,0
300,-300,-2080.36,0
300,-300,-2003.85,0
300,-300,-1925.08,0
300,-300,-1846.89,0
300,-300,-1772.79,0
300,-300,-1705.05,0
300,-300,-1646.02,0
300,-300,-1595.26,0
300,-300,-1554.54,0
300,-300,-1521.77,0
300,-300,-1496.99,0
300,-300,-1476.74,0
300,-300,-1458.55,0
300,-300,-1439.66,0
300,-300,-1417.91,0
300,-300,-1391.27,0
300,-300,-1358.58,0
300,-300,-1318.99,0
300,-300,-1272.45,0
300,-300,-1220.01,0
300,-300,-1163.78,0
300,-300,-1105.06,0
300,-300,-1046.12,0
300,-300,-988.50,0
300,-300,-933.84,0
300,-300,-883.48,0
300,-300,-838.17,0
300,-300,-799.06,0
300,-300,-765.68,0
300,-300,-739.03,0
300,-300,-719.89,0
300,-300,-709.17,0
300,-300,-708.03,0
300,-300,-717.84,0
300,-300,-740.44,0
300,-300,-776.27,0
300,-300,-825.70,0
300,-300,-888.40,0
300,-300,-963.70,0
300,-300,-1049.03,0
300,-300,-1142.87,0
300,-300,-1241.35,0
300,-300,-1342.50,0
300,-300,-1443.81,0
300,-300,-1543.32,0
300,-300,-1639.80,0
300,-300,-1732.72,0
300,-300,-1821.43,0
300,-300,-1907.46,0
300,-300,-1989.35,0
300,-300,-2067.81,0
300,-300,-2142.18,0
300,-300,-2211.21,0
300,-300,-2273.37,0
300,-300,-2326.57,0
300,-300,-2369.70,0
300,-300,-2401.23,0
300,-300,-2420.68,0
300,-300,-2428.81,0
300,-300,-2425.72,0
300,-300,-2415.34,0
300,-300,-2399.62,0
300,-300,-2382.13,0
300,-300,-2365.95,0
300,-300,-2353.41,0
300,-300,-2346.13,0
300,-300,-2345.96,0
300,-300,-2351.11,0
300,-300,-2361.30,0
300,-300,-2373.19,0
300,-300,-2385.21,0
300,-300,-2394.03,0
300,-300,-2397.37,0
300,-300,-2392.49,0
300,-300,-2378.37,0
300,-300,-2353.55,0
300,-300,-2316.03,0
300,-300,-2267.46,0
300,-300,-2208.84,0
300,-300,-2141.22,0
300,-300,-2066.80,0
300,-300,-1988.21,0
300,-300,-1908.30,0
300,-300,-1829.93,0
300,-300,-1756.42,0
300,-300,-1689.99,0
300,-300,-1632.17,0
300,-300,-1585.17,0
300,-300,-1548.10,0
300,-300,-1522.99,0
300,-300,-1505.07,0
300,-300,-1492.48,0
300,-300,-1482.51,0
300,-300,-1471.49,0
300,-300,-1456.27,0
300,-300,-1433.77,0
300,-300,-1401.68,0
300,-300,-1360.08,0
300,-300,-1309.57,0
300,-300,-1250.64,0
300,-300,-1185.94,0
300,-300,-1118.16,0
300,-300,-1050.45,0
300,-300,-984.60,0
300,-300,-923.39,0
300,-300,-867.25,0
300,-300,-817.75,0
300,-300,-774.40,0
300,-300,-737.34,0
300,-300,-707.32,0
300,-300,-684.21,0
300,-300,-669.45,0
300,-300,-664.22,0
300,-300,-670.14,0
300,-300,-689.45,0
300,-300,-724.05,0
300,-300,-774.04,0
300,-300,-839.67,0
300,-300,-919.03,0
300,-300,-1011.06,0
300,-300,-1112.07,0
300,-300,-1219.18,0
300,-300,-1328.18,0
300,-300,-1436.35,0
300,-300,-1541.14,0
300,-300,-1641.79,0
300,-300,-1736.71,0
300,-300,-1826.72,0
300,-300,-1912.10,0
300,-300,-1993.34,0
300,-300,-2071.02,0
300,-300,-2144.52,0
300,-300,-2213.61,0
300,-300,-2276.05,0
300,-300,-2330.31,0
300,-300,-2374.68,0
300,-300,-2407.36,0
300,-300,-2427.39,0
300,-300,-2435.65,0
300,-300,-2432.50,0
300,-300,-2421.29,0
300,-300,-2405.31,0
300,-300,-2387.99,0
300,-300,-2373.41,0
300,-300,-2364.40,0
300,-300,-2363.09,0
300,-300,-2371.05,0
300,-300,-2387.03,0
300,-300,-2409.49,0
300,-300,-2435.53,0
300,-300,-2461.92,0
300,-300,-2484.69,0
300,-300,-2500.92,0
300,-300,-2507.30,0
300,-300,-2499.57,0
300,-300,-2478.71,0
300,-300,-2443.88,0
300,-300,-2394.89,0
300,-300,-2334.35,0
300,-300,-2264.05,0
300,-300,-2187.13,0
300,-300,-2106.08,0
300,-300,-2024.19,0
300,-300,-1944.45,0
300,-300,-1869.74,0
300,-300,-1801.67,0
300,-300,-1742.07,0
300,-300,-1693.11,0
300,-300,-1653.21,0
300,-300,-1621.36,0
300,-300,-1596.28,0
300,-300,-1575.63,0
300,-300,-1556.74,0
300,-300,-1536.85,0
300,-300,-1513.49,0
300,-300,-1484.06,0
300,-300,-1446.84,0
300,-300,-1402.27,0
300,-300,-1349.89,0
300,-300,-1291.00,0
300,-300,-1227.70,0
300,-300,-1162.13,0
300,-300,-1096.84,0
300,-300,-1033.77,0
300,-300,-975.08,0
300,-300,-921.31,0
300,-300,-873.60,0
300,-300,-832.64,0
300,-300,-797.31,0
300,-300,-768.83,0
300,-300,-747.76,0
300,-300,-734.46,0
300,-300,-730.58,0
300,-300,-736.92,0
300,-300,-755.76,0
300,-300,-787.43,0
300,-300,-833.06,0
300,-300,-891.90,0
300,-300,-963.27,0
300,-300,-1045.20,0
300,-300,-1135.03,0
300,-300,-1229.92,0
300,-300,-1326.74,0
300,-300,-1423.32,0
300,-300,-1516.86,0
300,-300,-1607.11,0
300,-300,-1692.33,0
300,-300,-1773.24,0
300,-300,-1850.28,0
300,-300,-1923.80,0
300,-300,-1993.86,0
300,-300,-2060.16,0
300,-300,-2121.94,0
300,-300,-2178.09,0
300,-300,-2226.73,0
300,-300,-2266.61,0
300,-300,-2295.14,0
300,-300,-2312.74,0
300,-300,-2319.52,0
300,-300,-2316.55,0
300,-300,-2305.86,0
300,-300,-2290.47,0
300,-300,-2273.79,0
300,-300,-2259.85,0
300,-300,-2251.11,0
300,-300,-2249.84,0
300,-300,-2256.55,0
300,-300,-2271.21,0
300,-300,-2292.12,0
300,-300,-2317.03,0
300,-300,-2342.44,0
300,-300,-2365.04,0
300,-300,-2381.13,0
300,-300,-2386.31,0
300,-300,-2379.46,0
300,-300,-2359.18,0
300,-300,-2325.41,0
300,-300,-2278.55,0
300,-300,-2221.39,0
300,-300,-2156.23,0
300,-300,-2086.67,0
300,-300,-2015.87,0
300,-300,-1947.26,0
300,-300,-1882.78,0
300,-300,-1825.60,0
300,-300,-1778.59,0
300,-300,-1740.54,0
300,-300,-1711.20,0
300,-300,-1689.70,0
300,-300,-1673.86,0
300,-300,-1661.46,0
300,-300,-1649.33,0
300,-300,-1634.92,0
300,-300,-1615.28,0
300,-300,-1589.34,0
300,-300,-1554.85,0
300,-300,-1511.91,0
300,-300,-1460.61,0
300,-300,-1402.51,0
300,-300,-1339.20,0
300,-300,-1272.94,0
300,-300,-1205.85,0
300,-300,-1139.77,0
300,-300,-1076.90,0
300,-300,-1018.50,0
300,-300,-964.81,0
300,-300,-917.19,0
300,-300,-875.91,0
300,-300,-841.85,0
300,-300,-815.27,0
300,-300,-797.37,0
300,-300,-789.22,0
300,-300,-793.16,0
300,-300,-809.38,0
300,-300,-839.36,0
300,-300,-883.05,0
300,-300,-940.93,0
300,-300,-1010.94,0
300,-300,-1091.67,0
300,-300,-1180.37,0
300,-300,-1274.39,0
300,-300,-1370.29,0
300,-300,-1466.85,0
300,-300,-1560.37,0
300,-300,-1650.59,0
300,-300,-1736.36,0
300,-300,-1817.89,0
300,-300,-1895.36,0
300,-300,-1969.13,0
300,-300,-2039.34,0
300,-300,-2105.97,0
300,-300,-2167.88,0
300,-300,-2224.31,0
300,-300,-2273.53,0
300,-300,-2313.56,0
300,-300,-2343.86,0
300,-300,-2362.55,0
300,-300,-2370.11,0
300,-300,-2367.95,0
300,-300,-2357.32,0
300,-300,-2341.43,0
300,-300,-2323.46,0
300,-300,-2306.38,0
300,-300,-2293.88,0
300,-300,-2287.45,0
300,-300,-2288.70,0
300,-300,-2297.15,0
300,-300,-2312.02,0
300,-300,-2330.93,0
300,-300,-2350.90,0
300,-300,-2369.02,0
300,-300,-2381.61,0
300,-300,-2386.23,0
300,-300,-2380.55,0
300,-300,-2362.51,0
300,-300,-2332.53,0
300,-300,-2290.76,0
300,-300,-2238.48,0
300,-300,-2177.77,0
300,-300,-2110.80,0
300,-300,-2040.28,0
300,-300,-1968.46,0
300,-300,-1898.49,0
300,-300,-1832.11,0
300,-300,-1772.70,0
300,-300,-1720.55,0
300,-300,-1676.24,0
300,-300,-1640.47,0
300,-300,-1612.46,0
300,-300,-1590.90,0
300,-300,-1574.37,0
300,-300,-1560.41,0
300,-300,-1546.60,0
300,-300,-1530.20,0
300,-300,-1509.83,0
300,-300,-1482.65,0
300,-300,-1448.24,0
300,-300,-1405.97,0
300,-300,-1356.95,0
300,-300,-1301.96,0
300,-300,-1243.62,0
300,-300,-1183.02,0
300,-300,-1123.01,0
300,-300,-1065.23,0
300,-300,-1011.84,0
300,-300,-962.96,0
300,-300,-920.22,0
300,-300,-883.97,0
300,-300,-855.03,0
300,-300,-832.76,0
300,-300,-818.48,0
300,-300,-812.62,0
300,-300,-815.92,0
300,-300,-829.42,0
300,-300,-853.52,0
300,-300,-888.81,0
300,-300,-935.44,0
300,-300,-992.51,0
300,-300,-1059.16,0
300,-300,-1133.18,0
300,-300,-1212.91,0
300,-300,-1295.49,0
300,-300,-1379.64,0
300,-300,-1462.26,0
300,-300,-1543.06,0
300,-300,-1620.96,0
300,-300,-1695.77,0
300,-300,-1767.13,0
300,-300,-1835.62,0
300,-300,-1901.16,0
300,-300,-1963.86,0
300,-300,-2023.41,0
300,-300,-2078.63,0
300,-300,-2127.71,0
300,-300,-2170.49,0
300,-300,-2204.83,0
300,-300,-2230.14,0
300,-300,-2245.65,0
300,-300,-2252.14,0
300,-300,-2250.75,0
300,-300,-2244.12,0
300,-300,-2234.72,0
300,-300,-2225.33,0
300,-300,-2218.74,0
300,-300,-2217.39,0
300,-300,-2222.39,0
300,-300,-2234.12,0
300,-300,-2251.55,0
300,-300,-2273.04,0
300,-300,-2295.08,0
300,-300,-2315.18,0
300,-300,-2327.06,0
300,-300,-2329.02,0
300,-300,-2318.25,0
300,-300,-2292.57,0
300,-300,-2251.86,0
300,-300,-2197.26,0
300,-300,-2131.27,0
300,-300,-2057.07,0
300,-300,-1978.93,0
300,-300,-1901.14,0
300,-300,-1827.15,0
300,-300,-1762.01,0
300,-300,-1707.11,0
300,-300,-1664.22,0
300,-300,-1633.10,0
300,-300,-1612.58,0
300,-300,-1599.99,0
300,-300,-1592.47,0
300,-300,-1586.26,0
300,-300,-1579.00,0
300,-300,-1566.36,0
300,-300,-1547.85,0
300,-300,-1521.34,0
300,-300,-1486.68,0
300,-300,-1444.44,0
300,-300,-1396.17,0
300,-300,-1343.32,0
300,-300,-1288.10,0
300,-300,-1232.30,0
300,-300,-1177.44,0
300,-300,-1125.27,0
300,-300,-1076.42,0
300,-300,-1031.23,0
300,-300,-990.82,0
300,-300,-955.24,0
300,-300,-925.24,0
300,-300,-901.71,0
300,-300,-885.88,0
300,-300,-878.95,0
300,-300,-883.42,0
300,-300,-898.78,0
300,-300,-927.30,0
300,-300,-968.28,0
300,-300,-1021.62,0
300,-300,-1085.82,0
300,-300,-1159.03,0
300,-300,-1238.75,0
300,-300,-1322.51,0
300,-300,-1407.05,0
300,-300,-1491.70,0
300,-300,-1573.17,0
300,-300,-1651.49,0
300,-300,-1725.67,0
300,-300,-1796.58,0
300,-300,-1864.40,0
300,-300,-1929.30,0
300,-300,-1991.66,0
300,-300,-2051.02,0
300,-300,-2106.36,0
300,-300,-2156.89,0
300,-300,-2200.65,0
300,-300,-2236.81,0
300,-300,-2263.47,0
300,-300,-2280.51,0
300,-300,-2288.00,0
300,-300,-2287.12,0
300,-300,-2279.82,0
300,-300,-2268.65,0
300,-300,-2256.59,0
300,-300,-2246.41,0
300,-300,-2240.80,0
300,-300,-2240.64,0
300,-300,-2247.38,0
300,-300,-2260.24,0
300,-300,-2277.30,0
300,-300,-2296.86,0
300,-300,-2315.69,0
300,-300,-2331.15,0
300,-300,-2338.67,0
300,-300,-2337.00,0
300,-300,-2323.32,0
300,-300,-2296.48,0
300,-300,-2256.88,0
300,-300,-2205.16,0
300,-300,-2142.92,0
300,-300,-2072.77,0
300,-300,-1997.33,0
300,-300,-1920.22,0
300,-300,-1844.74,0
300,-300,-1773.69,0
300,-300,-1709.04,0
300,-300,-1655.01,0
300,-300,-1610.89,0
300,-300,-1577.14,0
300,-300,-1552.87,0
300,-300,-1536.83,0
300,-300,-1526.20,0
300,-300,-1518.64,0
300,-300,-1511.21,0
300,-300,-1500.48,0
300,-300,-1484.05,0
300,-300,-1460.54,0
300,-300,-1427.88,0
300,-300,-1386.48,0
300,-300,-1337.24,0
300,-300,-1281.41,0
300,-300,-1221.08,0
300,-300,-1158.60,0
300,-300,-1095.96,0
300,-300,-1036.19,0
300,-300,-980.04,0
300,-300,-929.79,0
300,-300,-885.83,0
300,-300,-849.10,0
300,-300,-820.07,0
300,-300,-799.56,0
300,-300,-788.09,0
300,-300,-786.48,0
300,-300,-795.05,0
300,-300,-815.80,0
300,-300,-848.45,0
300,-300,-893.58,0
300,-300,-950.38,0
300,-300,-1018.68,0
300,-300,-1095.98,0
300,-300,-1180.62,0
300,-300,-1270.03,0
300,-300,-1361.71,0
300,-300,-1453.27,0
300,-300,-1543.10,0
300,-300,-1628.46,0
300,-300,-1709.91,0
300,-300,-1786.83,0
300,-300,-1859.84,0
300,-300,-1928.26,0
300,-300,-1993.22,0
300,-300,-2054.43,0
300,-300,-2112.29,0
300,-300,-2164.97,0
300,-300,-2212.49,0
300,-300,-2252.20,0
300,-300,-2284.50,0
300,-300,-2307.61,0
300,-300,-2321.84,0
300,-300,-2327.18,0
300,-300,-2324.78,0
300,-300,-2317.14,0
300,-300,-2307.08,0
300,-300,-2296.45,0
300,-300,-2288.33,0
300,-300,-2284.32,0
300,-300,-2285.82,0
300,-300,-2292.85,0
300,-300,-2304.79,0
300,-300,-2320.03,0
300,-300,-2336.32,0
300,-300,-2350.88,0
300,-300,-2361.09,0
300,-300,-2363.69,0
300,-300,-2356.70,0
300,-300,-2338.61,0
300,-300,-2308.01,0
300,-300,-2265.46,0
300,-300,-2211.62,0
300,-300,-2147.95,0
300,-300,-2077.25,0
300,-300,-2001.59,0
300,-300,-1923.25,0
300,-300,-1845.86,0
300,-300,-1773.33,0
300,-300,-1706.88,0
300,-300,-1649.13,0
300,-300,-1601.04,0
300,-300,-1563.36,0
300,-300,-1535.51,0
300,-300,-1516.52,0
300,-300,-1503.97,0
300,-300,-1494.30,0
300,-300,-1485.77,0
300,-300,-1474.14,0
300,-300,-1457.24,0
300,-300,-1432.94,0
300,-300,-1399.53,0
300,-300,-1356.89,0
300,-300,-1305.59,0
300,-300,-1247.27,0
300,-300,-1183.66,0
300,-300,-1118.03,0
300,-300,-1052.66,0
300,-300,-989.88,0
300,-300,-932.11,0
300,-300,-881.05,0
300,-300,-837.54,0
300,-300,-802.62,0
300,-300,-776.50,0
300,-300,-759.46,0
300,-300,-752.80,0
300,-300,-755.74,0
300,-300,-769.84,0
300,-300,-795.51,0
300,-300,-832.74,0
300,-300,-881.75,0
300,-300,-942.32,0
300,-300,-1013.75,0
300,-300,-1094.12,0
300,-300,-1181.61,0
300,-300,-1274.60,0
300,-300,-1369.47,0
300,-300,-1464.83,0
300,-300,-1558.74,0
300,-300,-1649.26,0
300,-300,-1736.15,0
300,-300,-1818.78,0
300,-300,-1897.76,0
300,-300,-1972.81,0
300,-300,-2044.39,0
300,-300,-2112.21,0
300,-300,-2176.31,0
300,-300,-2234.83,0
300,-300,-2287.48,0
300,-300,-2331.80,0
300,-300,-2367.13,0
300,-300,-2392.45,0
300,-300,-2406.65,0
300,-300,-2410.31,0
300,-300,-2405.33,0
300,-300,-2393.03,0
300,-300,-2377.38,0
300,-300,-2359.65,0
300,-300,-2344.00,0
300,-300,-2332.35,0
300,-300,-2326.48,0
300,-300,-2326.91,0
300,-300,-2333.04,0
300,-300,-2343.61,0
300,-300,-2356.88,0
300,-300,-2370.19,0
300,-300,-2380.44,0
300,-300,-2384.07,0
300,-300,-2379.84,0
300,-300,-2365.18,0
300,-300,-2339.08,0
300,-300,-2300.71,0
300,-300,-2250.66,0
300,-300,-2189.92,0
300,-300,-2119.07,0
300,-300,-2041.42,0
300,-300,-1959.90,0
300,-300,-1877.20,0
300,-300,-1797.26,0
300,-300,-1722.85,0
300,-300,-1656.91,0
300,-300,-1601.61,0
300,-300,-1558.19,0
300,-300,-1527.19,0
300,-300,-1506.96,0
300,-300,-1495.53,0
300,-300,-1490.22,0
300,-300,-1487.54,0
300,-300,-1482.88,0
300,-300,-1472.29,0
300,-300,-1453.18,0
300,-300,-1423.16,0
300,-300,-1381.61,0
300,-300,-1328.75,0
300,-300,-1266.65,0
300,-300,-1197.89,0
300,-300,-1125.49,0
300,-300,-1053.91,0
300,-300,-984.83,0
300,-300,-921.26,0
300,-300,-864.91,0
300,-300,-816.52,0
300,-300,-776.28,0
300,-300,-743.94,0
300,-300,-719.32,0
300,-300,-702.26,0
300,-300,-693.63,0
300,-300,-693.59,0
300,-300,-703.86,0
300,-300,-726.04,0
300,-300,-761.78,0
300,-300,-811.82,0
300,-300,-876.90,0
300,-300,-956.03,0
300,-300,-1048.02,0
300,-300,-1150.10,0
300,-300,-1258.70,0
300,-300,-1371.32,0
300,-300,-1484.44,0
300,-300,-1595.31,0
300,-300,-1702.23,0
300,-300,-1804.15,0
300,-300,-1901.17,0
300,-300,-1993.62,0
300,-300,-2081.94,0
300,-300,-2166.74,0
300,-300,-2247.21,0
300,-300,-2323.44,0
300,-300,-2393.68,0
300,-300,-2455.78,0
300,-300,-2507.42,0
300,-300,-2546.71,0
300,-300,-2572.29,0
300,-300,-2583.96,0
300,-300,-2582.17,0
300,-300,-2569.21,0
300,-300,-2548.65,0
300,-300,-2523.37,0
300,-300,-2498.50,0
300,-300,-2476.94,0
300,-300,-2461.77,0
300,-300,-2454.49,0
300,-300,-2454.69,0
300,-300,-2462.57,0
300,-300,-2474.33,0
300,-300,-2487.04,0
300,-300,-2497.52,0
300,-300,-2501.46,0
300,-300,-2496.63,0
300,-300,-2480.65,0
300,-300,-2452.35,0
300,-300,-2411.05,0
300,-300,-2357.66,0
300,-300,-2289.81,0
300,-300,-2213.20,0
300,-300,-2127.99,0
300,-300,-2036.79,0
300,-300,-1942.67,0
300,-300,-1848.59,0
300,-300,-1757.14,0
300,-300,-1671.52,0
300,-300,-1594.47,0
300,-300,-1528.38,0
300,-300,-1473.46,0
300,-300,-1431.93,0
300,-300,-1403.39,0
300,-300,-1384.93,0
300,-300,-1374.42,0
300,-300,-1367.56,0
300,-300,-1360.92,0
300,-300,-1350.16,0
300,-300,-1331.28,0
300,-300,-1301.75,0
300,-300,-1260.10,0
300,-300,-1206.04,0
300,-300,-1141.64,0
300,-300,-1069.47,0
300,-300,-992.45,0
300,-300,-915.20,0
300,-300,-840.67,0
300,-300,-772.39,0
300,-300,-712.24,0
300,-300,-662.15,0
300,-300,-621.54,0
300,-300,-590.74,0
300,-300,-569.18,0
300,-300,-556.68,0
300,-300,-553.19,0
300,-300,-559.40,0
300,-300,-576.93,0
300,-300,-606.64,0
300,-300,-650.42,0
300,-300,-710.24,0
300,-300,-785.14,0
300,-300,-875.47,0
300,-300,-978.99,0
300,-300,-1093.14,0
300,-300,-1214.45,0
300,-300,-1339.41,0
300,-300,-1464.43,0
300,-300,-1586.16,0
300,-300,-1702.30,0
300,-300,-1812.11,0
300,-300,-1915.00,0
300,-300,-2011.40,0
300,-300,-2101.67,0
300,-300,-2186.93,0
300,-300,-2266.75,0
300,-300,-2341.24,0
300,-300,-2408.66,0
300,-300,-2467.28,0
300,-300,-2514.77,0
300,-300,-2549.36,0
300,-300,-2570.28,0
300,-300,-2576.25,0
300,-300,-2568.78,0
300,-300,-2550.53,0
300,-300,-2524.69,0
300,-300,-2495.62,0
300,-300,-2467.66,0
300,-300,-2445.01,0
300,-300,-2431.17,0
300,-300,-2427.90,0
300,-300,-2435.39,0
300,-300,-2451.78,0
300,-300,-2474.83,0
300,-300,-2500.41,0
300,-300,-2523.99,0
300,-300,-2541.75,0
300,-300,-2549.63,0
300,-300,-2544.95,0
300,-300,-2523.57,0
300,-300,-2486.71,0
300,-300,-2434.56,0
300,-300,-2367.73,0
300,-300,-2289.48,0
300,-300,-2202.73,0
300,-300,-2110.74,0
300,-300,-2017.06,0
300,-300,-1925.24,0
300,-300,-1838.66,0
300,-300,-1759.90,0
300,-300,-1691.66,0
300,-300,-1634.00,0
300,-300,-1591.32,0
300,-300,-1559.22,0
300,-300,-1537.41,0
300,-300,-1523.47,0
300,-300,-1514.55,0
300,-300,-1506.85,0
300,-300,-1496.65,0
300,-300,-1480.44,0
300,-300,-1454.85,0
300,-300,-1417.84,0
300,-300,-1370.22,0
300,-300,-1310.70,0
300,-300,-1241.94,0
300,-300,-1166.84,0
300,-300,-1088.41,0
300,-300,-1010.35,0
300,-300,-935.75,0
300,-300,-866.49,0
300,-300,-805.04,0
300,-300,-752.10,0
300,-300,-707.94,0
300,-300,-672.68,0
300,-300,-646.22,0
300,-300,-628.93,0
300,-300,-621.47,0
300,-300,-624.19,0
300,-300,-639.33,0
300,-300,-667.47,0
300,-300,-710.78,0
300,-300,-768.49,0
300,-300,-841.53,0
300,-300,-928.50,0
300,-300,-1027.10,0
300,-300,-1134.33,0
300,-300,-1246.94,0
300,-300,-1361.50,0
300,-300,-1474.84,0
300,-300,-1584.53,0
300,-300,-1688.89,0
300,-300,-1786.08,0
300,-300,-1877.75,0
300,-300,-1963.23,0
300,-300,-2043.40,0
300,-300,-2118.41,0
300,-300,-2188.36,0
300,-300,-2252.43,0
300,-300,-2310.00,0
300,-300,-2358.56,0
300,-300,-2397.12,0
300,-300,-2423.63,0
300,-300,-2437.34,0
300,-300,-2438.80,0
300,-300,-2429.07,0
300,-300,-2410.42,0
300,-300,-2386.49,0
300,-300,-2360.46,0
300,-300,-2337.76,0
300,-300,-2320.25,0
300,-300,-2311.47,0
300,-300,-2312.21,0
300,-300,-2321.81,0
300,-300,-2339.18,0
300,-300,-2361.14,0
300,-300,-2384.01,0
300,-300,-2403.88,0
300,-300,-2416.79,0
300,-300,-2417.46,0
300,-300,-2404.81,0
300,-300,-2376.38,0
300,-300,-2332.14,0
300,-300,-2272.98,0
300,-300,-2201.20,0
300,-300,-2119.52,0
300,-300,-2031.91,0
300,-300,-1942.03,0
300,-300,-1854.05,0
300,-300,-1770.79,0
300,-300,-1696.05,0
300,-300,-1633.92,0
300,-300,-1583.63,0
300,-300,-1545.81,0
300,-300,-1520.17,0
300,-300,-1505.01,0
300,-300,-1497.45,0
300,-300,-1494.64,0
300,-300,-1492.45,0
300,-300,-1487.76,0
300,-300,-1477.02,0
300,-300,-1458.19,0
300,-300,-1429.04,0
300,-300,-1389.37,0
300,-300,-1339.63,0
300,-300,-1281.61,0
300,-300,-1217.43,0
300,-300,-1150.11,0
300,-300,-1082.79,0
300,-300,-1017.12,0
300,-300,-955.89,0
300,-300,-900.21,0
300,-300,-851.45,0
300,-300,-809.79,0
300,-300,-775.32,0
300,-300,-748.57,0
300,-300,-729.91,0
300,-300,-720.36,0
300,-300,-721.57,0
300,-300,-734.05,0
300,-300,-759.69,0
300,-300,-799.62,0
300,-300,-854.37,0
300,-300,-923.48,0
300,-300,-1006.05,0
300,-300,-1100.02,0
300,-300,-1202.24,0
300,-300,-1309.76,0
300,-300,-1419.03,0
300,-300,-1527.78,0
300,-300,-1632.32,0
300,-300,-1732.39,0
300,-300,-1825.95,0
300,-300,-1913.70,0
300,-300,-1995.81,0
300,-300,-2072.53,0
300,-300,-2144.44,0
300,-300,-2211.46,0
300,-300,-2272.69,0
300,-300,-2327.90,0
300,-300,-2374.55,0
300,-300,-2411.48,0
300,-300,-2437.63,0
300,-300,-2451.96,0
300,-300,-2454.36,0
300,-300,-2446.15,0
300,-300,-2429.55,0
300,-300,-2407.78,0
300,-300,-2384.43,0
300,-300,-2363.01,0
300,-300,-2345.75,0
300,-300,-2336.06,0
300,-300,-2334.41,0
300,-300,-2340.67,0
300,-300,-2352.96,0
300,-300,-2368.37,0
300,-300,-2383.83,0
300,-300,-2395.27,0
300,-300,-2398.28,0
300,-300,-2390.49,0
300,-300,-2367.92,0
300,-300,-2331.03,0
300,-300,-2279.25,0
300,-300,-2213.80,0
300,-300,-2137.29,0
300,-300,-2052.68,0
300,-300,-1963.81,0
300,-300,-1874.82,0
300,-300,-1789.48,0
300,-300,-1710.66,0
300,-300,-1642.70,0
300,-300,-1586.40,0
300,-300,-1542.76,0
300,-300,-1511.21,0
300,-300,-1490.95,0
300,-300,-1479.27,0
300,-300,-1473.70,0
300,-300,-1470.83,0
300,-300,-1467.03,0
300,-300,-1459.00,0
300,-300,-1444.86,0
300,-300,-1421.42,0
300,-300,-1388.03,0
300,-300,-1344.92,0
300,-300,-1293.03,0
300,-300,-1233.81,0
300,-300,-1169.67,0
300,-300,-1103.03,0
300,-300,-1036.93,0
300,-300,-973.87,0
300,-300,-915.03,0
300,-300,-862.68,0
300,-300,-817.34,0
300,-300,-780.33,0
300,-300,-752.02,0
300,-300,-733.32,0
300,-300,-724.75,0
300,-300,-727.14,0
300,-300,-742.28,0
300,-300,-770.08,0
300,-300,-812.26,0
300,-300,-869.01,0
300,-300,-939.78,0
300,-300,-1023.58,0
300,-300,-1118.30,0
300,-300,-1221.72,0
300,-300,-1330.69,0
300,-300,-1441.99,0
300,-300,-1552.44,0
300,-300,-1658.94,0
300,-300,-1760.59,0
300,-300,-1855.48,0
300,-300,-1943.43,0
300,-300,-2024.01,0
300,-300,-2097.84,0
300,-300,-2165.63,0
300,-300,-2227.55,0
300,-300,-2283.39,0
300,-300,-2332.51,0
300,-300,-2374.07,0
300,-300,-2406.24,0
300,-300,-2428.80,0
300,-300,-2440.26,0
300,-300,-2441.04,0
300,-300,-2431.57,0
300,-300,-2413.67,0
300,-300,-2391.15,0
300,-300,-2365.56,0
300,-300,-2341.08,0
300,-300,-2321.06,0
300,-300,-2307.20,0
300,-300,-2301.84,0
300,-300,-2304.67,0
300,-300,-2314.77,0
300,-300,-2329.86,0
300,-300,-2347.00,0
300,-300,-2362.60,0
300,-300,-2373.33,0
300,-300,-2375.03,0
300,-300,-2365.03,0
300,-300,-2342.02,0
300,-300,-2304.96,0
300,-300,-2253.86,0
300,-300,-2190.19,0
300,-300,-2116.01,0
300,-300,-2034.26,0
300,-300,-1947.11,0
300,-300,-1859.94,0
300,-300,-1775.34,0
300,-300,-1697.26,0
300,-300,-1628.27,0
300,-300,-1570.74,0
300,-300,-1525.94,0
300,-300,-1494.08,0
300,-300,-1474.58,0
300,-300,-1464.75,0
300,-300,-1462.72,0
300,-300,-1465.21,0
300,-300,-1467.94,0
300,-300,-1467.33,0
300,-300,-1460.04,0
300,-300,-1443.46,0
300,-300,-1416.04,0
300,-300,-1377.40,0
300,-300,-1328.60,0
300,-300,-1270.98,0
300,-300,-1207.34,0
300,-300,-1140.61,0
300,-300,-1073.69,0
300,-300,-1009.85,0
300,-300,-950.78,0
300,-300,-898.36,0
300,-300,-853.82,0
300,-300,-817.90,0
300,-300,-790.86,0
300,-300,-774.17,0
300,-300,-767.33,0
300,-300,-771.32,0
300,-300,-787.66,0
300,-300,-816.68,0
300,-300,-859.31,0
300,-300,-916.38,0
300,-300,-987.16,0
300,-300,-1070.80,0
300,-300,-1165.46,0
300,-300,-1268.83,0
300,-300,-1377.55,0
300,-300,-1488.49,0
300,-300,-1598.74,0
300,-300,-1705.28,0
300,-300,-1806.49,0
300,-300,-1901.38,0
300,-300,-1989.03,0
300,-300,-2069.72,0
300,-300,-2143.82,0
300,-300,-2211.50,0
300,-300,-2273.57,0
300,-300,-2329.01,0
300,-300,-2376.98,0
300,-300,-2416.63,0
300,-300,-2446.27,0
300,-300,-2464.83,0
300,-300,-2471.61,0
300,-300,-2466.44,0
300,-300,-2450.91,0
300,-300,-2427.33,0
300,-300,-2397.78,0
300,-300,-2366.26,0
300,-300,-2336.81,0
300,-300,-2312.49,0
300,-300,-2296.06,0
300,-300,-2289.22,0
300,-300,-2291.60,0
300,-300,-2302.52,0
300,-300,-2319.64,0
300,-300,-2338.62,0
300,-300,-2355.91,0
300,-300,-2365.86,0
300,-300,-2365.91,0
300,-300,-2352.56,0
300,-300,-2323.61,0
300,-300,-2278.59,0
300,-300,-2218.15,0
300,-300,-2145.12,0
300,-300,-2062.21,0
300,-300,-1973.83,0
300,-300,-1884.36,0
300,-300,-1798.80,0
300,-300,-1719.90,0
300,-300,-1651.93,0
300,-300,-1596.32,0
300,-300,-1553.22,0
300,-300,-1522.27,0
300,-300,-1501.51,0
300,-300,-1487.37,0
300,-300,-1477.02,0
300,-300,-1466.32,0
300,-300,-1453.56,0
300,-300,-1433.49,0
300,-300,-1405.40,0
300,-300,-1368.14,0
300,-300,-1322.08,0
300,-300,-1268.12,0
300,-300,-1208.40,0
300,-300,-1144.48,0
300,-300,-1080.30,0
300,-300,-1017.87,0
300,-300,-959.38,0
300,-300,-905.84,0
300,-300,-859.26,0
300,-300,-820.27,0
300,-300,-789.00,0
300,-300,-766.08,0
300,-300,-751.81,0
300,-300,-746.54,0
300,-300,-751.58,0
300,-300,-767.35,0
300,-300,-795.47,0
300,-300,-836.26,0
300,-300,-890.67,0
300,-300,-958.10,0
300,-300,-1037.85,0
300,-300,-1128.19,0
300,-300,-1226.56,0
300,-300,-1330.81,0
300,-300,-1437.24,0
300,-300,-1542.67,0
300,-300,-1645.18,0
300,-300,-1743.07,0
300,-300,-1835.06,0
300,-300,-1920.67,0
300,-300,-2000.28,0
300,-300,-2073.76,0
300,-300,-2141.90,0
300,-300,-2205.22,0
300,-300,-2262.33,0
300,-300,-2312.92,0
300,-300,-2355.60,0
300,-300,-2389.25,0
300,-300,-2412.58,0
300,-300,-2424.97,0
300,-300,-2426.56,0
300,-300,-2418.33,0
300,-300,-2402.26,0
300,-300,-2381.89,0
300,-300,-2359.66,0
300,-300,-2340.07,0
300,-300,-2325.11,0
300,-300,-2317.84,0
300,-300,-2319.12,0
300,-300,-2328.70,0
300,-300,-2344.85,0
300,-300,-2364.44,0
300,-300,-2383.70,0
300,-300,-2395.00,0
300,-300,-2396.74,0
300,-300,-2383.64,0
300,-300,-2353.88,0
300,-300,-2306.11,0
300,-300,-2241.47,0
300,-300,-2162.62,0
300,-300,-2073.43,0
300,-300,-1979.16,0
300,-300,-1885.62,0
300,-300,-1796.97,0
300,-300,-1718.22,0
300,-300,-1652.33,0
300,-300,-1600.61,0
300,-300,-1562.22,0
300,-300,-1535.12,0
300,-300,-1515.73,0
300,-300,-1499.81,0
300,-300,-1483.16,0
300,-300,-1461.85,0
300,-300,-1432.61,0
300,-300,-1394.21,0
300,-300,-1345.62,0
300,-300,-1288.15,0
300,-300,-1223.02,0
300,-300,-1153.33,0
300,-300,-1081.60,0
300,-300,-1010.83,0
300,-300,-943.51,0
300,-300,-880.93,0
300,-300,-823.56,0
300,-300,-772.47,0
300,-300,-726.40,0
300,-300,-685.25,0
300,-300,-648.84,0
300,-300,-617.41,0
300,-300,-591.63,0
300,-300,-573.32,0
300,-300,-563.94,0
300,-300,-566.26,0
300,-300,-581.07,0
300,-300,-611.16,0
300,-300,-655.70,0
300,-300,-715.10,0
300,-300,-787.44,0
300,-300,-871.00,0
300,-300,-962.21,0
300,-300,-1057.86,0
300,-300,-1154.68,0
300,-300,-1249.86,0
300,-300,-1341.98,0
300,-300,-1429.83,0
300,-300,-1512.63,0
300,-300,-1591.44,0
300,-300,-1666.49,0
300,-300,-1738.38,0
300,-300,-1806.99,0
300,-300,-1872.05,0
300,-300,-1932.39,0
300,-300,-1986.21,0
300,-300,-2032.69,0
300,-300,-2068.98,0
300,-300,-2094.93,0
300,-300,-2109.78,0
300,-300,-2114.57,0
300,-300,-2111.45,0
300,-300,-2102.73,0
300,-300,-2092.69,0
300,-300,-2084.87,0
300,-300,-2082.98,0
300,-300,-2089.35,0
300,-300,-2104.96,0
300,-300,-2130.03,0
300,-300,-2162.37,0
300,-300,-2198.32,0
300,-300,-2233.45,0
300,-300,-2263.57,0
300,-300,-2283.95,0
300,-300,-2290.59,0
300,-300,-2282.48,0
300,-300,-2259.74,0
300,-300,-2223.07,0
300,-300,-2176.59,0
300,-300,-2124.14,0
300,-300,-2070.88,0
300,-300,-2021.57,0
300,-300,-1980.24,0
300,-300,-1949.78,0
300,-300,-1930.73,0
300,-300,-1923.17,0
300,-300,-1923.48,0
300,-300,-1932.12,0
300,-300,-1941.83,0
300,-300,-1949.07,0
300,-300,-1950.87,0
300,-300,-1944.20,0
300,-300,-1927.70,0
300,-300,-1901.55,0
300,-300,-1866.49,0
300,-300,-1824.50,0
300,-300,-1777.36,0
300,-300,-1728.63,0
300,-300,-1679.27,0
300,-300,-1631.94,0
300,-300,-1587.29,0
300,-300,-1546.08,0
300,-300,-1508.18,0
300,-300,-1473.53,0
300,-300,-1441.70,0
300,-300,-1413.26,0
300,-300,-1387.98,0
300,-300,-1366.93,0
300,-300,-1351.01,0
300,-300,-1342.36,0
300,-300,-1342.23,0
300,-300,-1352.35,0
300,-300,-1372.93,0
300,-300,-1404.64,0
300,-300,-1446.29,0
300,-300,-1496.65,0
300,-300,-1553.37,0
300,-300,-1614.47,0
300,-300,-1677.21,0
300,-300,-1739.35,0
300,-300,-1799.16,0
300,-300,-1855.46,0
300,-300,-1908.11,0
300,-300,-1957.64,0
300,-300,-2003.80,0
300,-300,-2047.60,0
300,-300,-2088.93,0
300,-300,-2128.28,0
300,-300,-2164.55,0
300,-300,-2196.28,0
300,-300,-2222.38,0
300,-300,-2240.76,0
300,-300,-2249.53,0
300,-300,-2249.38,0
300,-300,-2238.41,0
300,-300,-2218.26,0
300,-300,-2190.97,0
300,-300,-2158.20,0
300,-300,-2123.38,0
300,-300,-2089.55,0
300,-300,-2059.21,0
300,-300,-2034.44,0
300,-300,-2015.79,0
300,-300,-2000.77,0
300,-300,-1989.26,0
300,-300,-1978.05,0
300,-300,-1964.95,0
300,-300,-1946.11,0
300,-300,-1920.02,0
300,-300,-1885.96,0
300,-300,-1844.17,0
300,-300,-1796.47,0
300,-300,-1745.32,0
300,-300,-1693.86,0
300,-300,-1646.79,0
300,-300,-1606.86,0
300,-300,-1576.99,0
300,-300,-1558.65,0
300,-300,-1551.56,0
300,-300,-1554.47,0
300,-300,-1564.44,0
300,-300,-1578.37,0
300,-300,-1592.41,0
300,-300,-1603.00,0
300,-300,-1606.94,0
300,-300,-1603.24,0
300,-300,-1590.23,0
300,-300,-1568.10,0
300,-300,-1538.00,0
300,-300,-1501.88,0
300,-300,-1461.81,0
300,-300,-1419.14,0
300,-300,-1376.10,0
300,-300,-1332.66,0
300,-300,-1290.16,0
300,-300,-1248.97,0
300,-300,-1208.91,0
300,-300,-1170.94,0
300,-300,-1134.92,0
300,-300,-1102.66,0
300,-300,-1075.75,0
300,-300,-1055.96,0
300,-300,-1046.84,0
300,-300,-1049.21,0
300,-300,-1065.19,0
300,-300,-1095.60,0
300,-300,-1140.62,0
300,-300,-1199.17,0
300,-300,-1269.22,0
300,-300,-1348.23,0
300,-300,-1432.79,0
300,-300,-1519.66,0
300,-300,-1606.34,0
300,-300,-1690.46,0
300,-300,-1769.86,0
300,-300,-1844.43,0
300,-300,-1913.15,0
300,-300,-1976.77,0
300,-300,-2035.91,0
300,-300,-2090.68,0
300,-300,-2141.22,0
300,-300,-2187.32,0
300,-300,-2227.51,0
300,-300,-2262.20,0
300,-300,-2289.35,0
300,-300,-2308.28,0
300,-300,-2318.27,0
300,-300,-2319.94,0
300,-300,-2313.98,0
300,-300,-2301.93,0
300,-300,-2286.31,0
300,-300,-2270.15,0
300,-300,-2255.92,0
300,-300,-2245.83,0
300,-300,-2241.17,0
300,-300,-2243.30,0
300,-300,-2250.98,0
300,-300,-2262.72,0
300,-300,-2275.75,0
300,-300,-2286.93,0
300,-300,-2292.41,0
300,-300,-2286.76,0
300,-300,-2268.75,0
300,-300,-2236.92,0
300,-300,-2189.28,0
300,-300,-2128.41,0
300,-300,-2056.15,0
300,-300,-1976.02,0
300,-300,-1892.21,0
300,-300,-1809.35,0
300,-300,-1731.28,0
300,-300,-1661.85,0
300,-300,-1602.32,0
300,-300,-1554.03,0
300,-300,-1517.90,0
300,-300,-1490.70,0
300,-300,-1469.76,0
300,-300,-1451.75,0
300,-300,-1433.70,0
300,-300,-1412.66,0
300,-300,-1386.18,0
300,-300,-1353.17,0
300,-300,-1313.32,0
300,-300,-1266.92,0
300,-300,-1216.07,0
300,-300,-1161.86,0
300,-300,-1106.33,0
300,-300,-1051.50,0
300,-300,-998.84,0
300,-300,-949.46,0
300,-300,-903.52,0
300,-300,-861.12,0
300,-300,-822.49,0
300,-300,-787.51,0
300,-300,-756.26,0
300,-300,-730.00,0
300,-300,-710.08,0
300,-300,-698.47,0
300,-300,-696.82,0
300,-300,-708.21,0
300,-300,-733.67,0
300,-300,-774.98,0
300,-300,-832.05,0
300,-300,-903.90,0
300,-300,-989.15,0
300,-300,-1084.87,0
300,-300,-1187.59,0
300,-300,-1294.18,0
300,-300,-1400.93,0
300,-300,-1505.61,0
300,-300,-1606.69,0
300,-300,-1702.26,0
300,-300,-1792.72,0
300,-300,-1877.32,0
300,-300,-1957.34,0
300,-300,-2033.09,0
300,-300,-2104.18,0
300,-300,-2170.17,0
300,-300,-2229.71,0
300,-300,-2281.42,0
300,-300,-2324.17,0
300,-300,-2355.98,0
300,-300,-2376.33,0
300,-300,-2385.15,0
300,-300,-2383.37,0
300,-300,-2373.27,0
300,-300,-2357.15,0
300,-300,-2338.87,0
300,-300,-2321.52,0
300,-300,-2308.04,0
300,-300,-2301.10,0
300,-300,-2301.92,0
300,-300,-2309.78,0
300,-300,-2324.06,0
300,-300,-2341.40,0
300,-300,-2358.73,0
300,-300,-2372.39,0
300,-300,-2378.93,0
300,-300,-2374.56,0
300,-300,-2357.37,0
300,-300,-2324.15,0
300,-300,-2277.91,0
300,-300,-2218.82,0
300,-300,-2149.88,0
300,-300,-2074.64,0
300,-300,-1997.27,0
300,-300,-1921.51,0
300,-300,-1851.34,0
300,-300,-1789.18,0
300,-300,-1735.88,0
300,-300,-1693.10,0
300,-300,-1659.40,0
300,-300,-1634.97,0
300,-300,-1615.86,0
300,-300,-1599.51,0
300,-300,-1583.15,0
300,-300,-1564.48,0
300,-300,-1541.88,0
300,-300,-1513.77,0
300,-300,-1480.32,0
300,-300,-1441.16,0
300,-300,-1397.77,0
300,-300,-1350.77,0
300,-300,-1302.37,0
300,-300,-1253.58,0
300,-300,-1205.59,0
300,-300,-1159.30,0
300,-300,-1115.26,0
300,-300,-1073.45,0
300,-300,-1034.89,0
300,-300,-998.09,0
300,-300,-964.28,0
300,-300,-934.15,0
300,-300,-908.33,0
300,-300,-888.87,0
300,-300,-877.74,0
300,-300,-876.37,0
300,-300,-887.26,0
300,-300,-911.23,0
300,-300,-949.84,0
300,-300,-1001.55,0
300,-300,-1066.16,0
300,-300,-1141.39,0
300,-300,-1224.36,0
300,-300,-1312.32,0
300,-300,-1402.90,0
300,-300,-1493.19,0
300,-300,-1581.41,0
300,-300,-1666.01,0
300,-300,-1747.27,0
300,-300,-1824.27,0
300,-300,-1897.90,0
300,-300,-1967.54,0
300,-300,-2034.02,0
300,-300,-2095.89,0
300,-300,-2152.88,0
300,-300,-2202.73,0
300,-300,-2244.80,0
300,-300,-2276.95,0
300,-300,-2298.71,0
300,-300,-2309.90,0
300,-300,-2310.77,0
300,-300,-2303.34,0
300,-300,-2290.61,0
300,-300,-2274.23,0
300,-300,-2258.65,0
300,-300,-2245.42,0
300,-300,-2237.74,0
300,-300,-2237.16,0
300,-300,-2243.52,0
300,-300,-2256.10,0
300,-300,-2272.71,0
300,-300,-2290.85,0
300,-300,-2307.83,0
300,-300,-2319.69,0
300,-300,-2324.20,0
300,-300,-2318.15,0
300,-300,-2301.46,0
300,-300,-2270.81,0
300,-300,-2229.13,0
300,-300,-2177.35,0
300,-300,-2117.95,0
300,-300,-2053.19,0
300,-300,-1987.29,0
300,-300,-1922.85,0
300,-300,-1863.23,0
300,-300,-1810.25,0
300,-300,-1766.33,0
300,-300,-1730.65,0
300,-300,-1703.59,0
300,-300,-1682.99,0
300,-300,-1669.44,0
300,-300,-1657.07,0
300,-300,-1644.63,0
300,-300,-1628.97,0
300,-300,-1608.74,0
300,-300,-1581.82,0
300,-300,-1547.81,0
300,-300,-1505.68,0
300,-300,-1457.47,0
300,-300,-1404.55,0
300,-300,-1348.21,0
300,-300,-1290.54,0
300,-300,-1233.97,0
300,-300,-1179.82,0
300,-300,-1129.39,0
300,-300,-1083.11,0
300,-300,-1041.91,0
300,-300,-1004.30,0
300,-300,-972.17,0
300,-300,-944.25,0
300,-300,-921.85,0
300,-300,-905.79,0
300,-300,-897.86,0
300,-300,-899.26,0
300,-300,-911.70,0
300,-300,-936.38,0
300,-300,-974.58,0
300,-300,-1025.99,0
300,-300,-1089.84,0
300,-300,-1163.23,0
300,-300,-1245.20,0
300,-300,-1332.10,0
300,-300,-1420.97,0
300,-300,-1509.21,0
300,-300,-1594.71,0
300,-300,-1676.04,0
300,-300,-1753.64,0
300,-300,-1826.09,0
300,-300,-1894.72,0
300,-300,-1958.99,0
300,-300,-2020.24,0
300,-300,-2077.67,0
300,-300,-2130.58,0
300,-300,-2177.43,0
300,-300,-2217.41,0
300,-300,-2248.06,0
300,-300,-2270.16,0
300,-300,-2281.21,0
300,-300,-2283.02,0
300,-300,-2276.30,0
300,-300,-2264.08,0
300,-300,-2248.44,0
300,-300,-2233.49,0
300,-300,-2221.68,0
300,-300,-2215.73,0
300,-300,-2216.79,0
300,-300,-2226.38,0
300,-300,-2242.82,0
300,-300,-2264.78,0
300,-300,-2289.14,0
300,-300,-2312.94,0
300,-300,-2332.38,0
300,-300,-2344.72,0
300,-300,-2346.41,0
300,-300,-2337.10,0
300,-300,-2314.60,0
300,-300,-2278.29,0
300,-300,-2231.81,0
300,-300,-2175.68,0
300,-300,-2113.14,0
300,-300,-2047.93,0
300,-300,-1982.67,0
300,-300,-1920.87,0
300,-300,-1864.17,0
300,-300,-1815.48,0
300,-300,-1773.70,0
300,-300,-1741.13,0
300,-300,-1714.78,0
300,-300,-1695.70,0
300,-300,-1679.73,0
300,-300,-1664.95,0
300,-300,-1648.86,0
300,-300,-1630.04,0
300,-300,-1606.19,0
300,-300,-1576.95,0
300,-300,-1541.50,0
300,-300,-1500.43,0
300,-300,-1453.83,0
300,-300,-1404.14,0
300,-300,-1352.50,0
300,-300,-1300.55,0
300,-300,-1249.08,0
300,-300,-1200.07,0
300,-300,-1153.32,0
300,-300,-1110.04,0
300,-300,-1070.04,0
300,-300,-1033.29,0
300,-300,-999.74,0
300,-300,-970.89,0
300,-300,-946.24,0
300,-300,-928.50,0
300,-300,-918.21,0
300,-300,-918.08,0
300,-300,-928.55,0
300,-300,-951.76,0
300,-300,-987.70,0
300,-300,-1036.49,0
300,-300,-1095.74,0
300,-300,-1165.26,0
300,-300,-1240.84,0
300,-300,-1320.61,0
300,-300,-1402.14,0
300,-300,-1483.20,0
300,-300,-1561.86,0
300,-300,-1637.71,0
300,-300,-1709.73,0
300,-300,-1779.25,0
300,-300,-1845.31,0
300,-300,-1908.52,0
300,-300,-1969.01,0
300,-300,-2026.63,0
300,-300,-2079.37,0
300,-300,-2126.75,0
300,-300,-2166.25,0
300,-300,-2197.42,0
300,-300,-2219.17,0
300,-300,-2231.20,0
300,-300,-2233.42,0
300,-300,-2228.59,0
300,-300,-2218.39,0
300,-300,-2206.11,0
300,-300,-2194.09,0
300,-300,-2185.30,0
300,-300,-2181.67,0
300,-300,-2185.30,0
300,-300,-2194.59,0
300,-300,-2209.72,0
300,-300,-2226.05,0
300,-300,-2243.03,0
300,-300,-2255.64,0
300,-300,-2261.18,0
300,-300,-2256.14,0
300,-300,-2239.25,0
300,-300,-2209.66,0
300,-300,-2167.94,0
300,-300,-2116.14,0
300,-300,-2057.87,0
300,-300,-1995.34,0
300,-300,-1933.19,0
300,-300,-1874.24,0
300,-300,-1822.07,0
300,-300,-1777.64,0
300,-300,-1741.83,0
300,-300,-1713.82,0
300,-300,-1691.77,0
300,-300,-1672.70,0
300,-300,-1654.11,0
300,-300,-1634.88,0
300,-300,-1610.26,0
300,-300,-1579.00,0
300,-300,-1541.11,0
300,-300,-1495.93,0
300,-300,-1444.87,0
300,-300,-1389.01,0
300,-300,-1330.56,0
300,-300,-1271.10,0
300,-300,-1213.44,0
300,-300,-1157.69,0
300,-300,-1105.60,0
300,-300,-1056.92,0
300,-300,-1012.39,0
300,-300,-971.71,0
300,-300,-934.82,0
300,-300,-901.48,0
300,-300,-872.26,0
300,-300,-848.51,0
300,-300,-831.22,0
300,-300,-822.22,0
300,-300,-823.73,0
300,-300,-836.76,0
300,-300,-862.75,0
300,-300,-901.89,0
300,-300,-954.14,0
300,-300,-1018.20,0
300,-300,-1092.21,0
300,-300,-1173.07,0
300,-300,-1258.21,0
300,-300,-1345.24,0
300,-300,-1431.79,0
300,-300,-1515.75,0
300,-300,-1596.31,0
300,-300,-1672.82,0
300,-300,-1745.83,0
300,-300,-1815.61,0
300,-300,-1882.74,0
300,-300,-1946.80,0
300,-300,-2007.68,0
300,-300,-2064.35,0
300,-300,-2115.95,0
300,-300,-2160.45,0
300,-300,-2196.60,0
300,-300,-2223.29,0
300,-300,-2240.31,0
300,-300,-2248.82,0
300,-300,-2249.71,0
300,-300,-2245.26,0
300,-300,-2239.06,0
300,-300,-2232.67,0
300,-300,-2229.96,0
300,-300,-2231.79,0
300,-300,-2239.29,0
300,-300,-2251.02,0
300,-300,-2265.80,0
300,-300,-2277.74,0
300,-300,-2286.74,0
300,-300,-2287.72,0
300,-300,-2278.84,0
300,-300,-2258.13,0
300,-300,-2225.98,0
300,-300,-2183.61,0
300,-300,-2133.78,0
300,-300,-2079.62,0
300,-300,-2025.68,0
300,-300,-1973.74,0
300,-300,-1929.18,0
300,-300,-1890.94,0
300,-300,-1860.73,0
300,-300,-1836.18,0
300,-300,-1815.81,0
300,-300,-1795.29,0
300,-300,-1772.07,0
300,-300,-1742.53,0
300,-300,-1705.36,0
300,-300,-1659.48,0
300,-300,-1605.50,0
300,-300,-1544.84,0
300,-300,-1480.49,0
300,-300,-1414.41,0
300,-300,-1350.21,0
300,-300,-1289.51,0
300,-300,-1234.47,0
300,-300,-1185.05,0
300,-300,-1142.03,0
300,-300,-1103.77,0
300,-300,-1070.01,0
300,-300,-1040.06,0
300,-300,-1013.73,0
300,-300,-991.19,0
300,-300,-973.81,0
300,-300,-963.14,0
300,-300,-961.77,0
300,-300,-971.26,0
300,-300,-994.19,0
300,-300,-1030.22,0
300,-300,-1079.72,0
300,-300,-1141.57,0
300,-300,-1213.28,0
300,-300,-1292.56,0
300,-300,-1376.43,0
300,-300,-1461.27,0
300,-300,-1545.67,0
300,-300,-1626.99,0
300,-300,-1704.35,0
300,-300,-1777.82,0
300,-300,-1847.35,0
300,-300,-1913.93,0
300,-300,-1977.36,0
300,-300,-2037.94,0
300,-300,-2095.36,0
300,-300,-2148.63,0
300,-300,-2196.18,0
300,-300,-2236.57,0
300,-300,-2266.99,0
300,-300,-2287.98,0
300,-300,-2297.82,0
300,-300,-2297.47,0
300,-300,-2289.02,0
300,-300,-2274.37,0
300,-300,-2256.70,0
300,-300,-2239.05,0
300,-300,-2224.22,0
300,-300,-2212.76,0
300,-300,-2206.52,0
300,-300,-2204.24,0
300,-300,-2204.01,0
300,-300,-2203.43,0
300,-300,-2200.11,0
300,-300,-2190.80,0
300,-300,-2173.49,0
300,-300,-2147.28,0
300,-300,-2112.36,0
300,-300,-2070.23,0
300,-300,-2023.20,0
300,-300,-1974.57,0
300,-300,-1926.80,0
300,-300,-1883.30,0
300,-300,-1845.84,0
300,-300,-1814.89,0
300,-300,-1790.05,0
300,-300,-1768.75,0
300,-300,-1749.75,0
300,-300,-1729.96,0
300,-300,-1706.58,0
300,-300,-1677.17,0
300,-300,-1643.10,0
300,-300,-1601.23,0
300,-300,-1553.81,0
300,-300,-1501.77,0
300,-300,-1448.20,0
300,-300,-1395.44,0
300,-300,-1345.37,0
300,-300,-1299.59,0
300,-300,-1258.89,0
300,-300,-1222.77,0
300,-300,-1192.65,0
300,-300,-1165.10,0
300,-300,-1141.42,0
300,-300,-1120.54,0
300,-300,-1103.21,0
300,-300,-1089.53,0
300,-300,-1081.34,0
300,-300,-1079.88,0
300,-300,-1087.74,0
300,-300,-1105.29,0
300,-300,-1134.02,0
300,-300,-1173.71,0
300,-300,-1224.63,0
300,-300,-1284.75,0
300,-300,-1352.24,0
300,-300,-1424.59,0
300,-300,-1499.97,0
300,-300,-1575.13,0
300,-300,-1649.50,0
300,-300,-1720.59,0
300,-300,-1789.10,0
300,-300,-1853.82,0
300,-300,-1915.27,0
300,-300,-1973.48,0
300,-300,-2028.18,0
300,-300,-2078.71,0
300,-300,-2125.29,0
300,-300,-2166.13,0
300,-300,-2200.56,0
300,-300,-2226.40,0
300,-300,-2243.94,0
300,-300,-2252.20,0
300,-300,-2251.54,0
300,-300,-2242.82,0
300,-300,-2228.29,0
300,-300,-2209.79,0
300,-300,-2191.23,0
300,-300,-2173.51,0
300,-300,-2159.52,0
300,-300,-2150.64,0
300,-300,-2146.84,0
300,-300,-2147.50,0
300,-300,-2150.87,0
300,-300,-2154.69,0
300,-300,-2156.07,0
300,-300,-2151.93,0
300,-300,-2138.70,0
300,-300,-2116.13,0
300,-300,-2083.35,0
300,-300,-2042.08,0
300,-300,-1992.96,0
300,-300,-1939.95,0
300,-300,-1886.30,0
300,-300,-1835.24,0
300,-300,-1790.37,0
300,-300,-1753.73,0
300,-300,-1725.72,0
300,-300,-1706.70,0
300,-300,-1696.30,0
300,-300,-1690.64,0
300,-300,-1687.17,0
300,-300,-1682.44,0
300,-300,-1673.58,0
300,-300,-1658.01,0
300,-300,-1634.59,0
300,-300,-1602.70,0
300,-300,-1562.66,0
300,-300,-1516.60,0
300,-300,-1466.06,0
300,-300,-1413.85,0
300,-300,-1361.55,0
300,-300,-1311.27,0
300,-300,-1264.43,0
300,-300,-1221.72,0
300,-300,-1183.15,0
300,-300,-1148.98,0
300,-300,-1119.52,0
300,-300,-1093.99,0
300,-300,-1072.66,0
300,-300,-1056.90,0
300,-300,-1047.57,0
300,-300,-1045.95,0
300,-300,-1054.01,0
300,-300,-1072.47,0
300,-300,-1102.62,0
300,-300,-1145.29,0
300,-300,-1198.60,0
300,-300,-1261.76,0
300,-300,-1332.99,0
300,-300,-1409.22,0
300,-300,-1488.54,0
300,-300,-1567.51,0
300,-300,-1644.54,0
300,-300,-1717.75,0
300,-300,-1786.41,0
300,-300,-1850.93,0
300,-300,-1910.47,0
300,-300,-1966.03,0
300,-300,-2018.19,0
300,-300,-2066.27,0
300,-300,-2110.72,0
300,-300,-2150.47,0
300,-300,-2184.63,0
300,-300,-2211.51,0
300,-300,-2230.21,0
300,-300,-2240.25,0
300,-300,-2241.97,0
300,-300,-2235.17,0
300,-300,-2222.96,0
300,-300,-2206.50,0
300,-300,-2189.38,0
300,-300,-2173.63,0
300,-300,-2162.32,0
300,-300,-2156.92,0
300,-300,-2158.37,0
300,-300,-2164.47,0
300,-300,-2175.53,0
300,-300,-2187.04,0
300,-300,-2196.14,0
300,-300,-2199.54,0
300,-300,-2194.45,0
300,-300,-2178.28,0
300,-300,-2150.33,0
300,-300,-2110.66,0
300,-300,-2061.15,0
300,-300,-2004.43,0
300,-300,-1944.52,0
300,-300,-1883.95,0
300,-300,-1827.41,0
300,-300,-1777.01,0
300,-300,-1734.50,0
300,-300,-1700.16,0
300,-300,-1673.50,0
300,-300,-1652.85,0
300,-300,-1635.45,0
300,-300,-1618.51,0
300,-300,-1599.84,0
300,-300,-1578.16,0
300,-300,-1551.00,0
300,-300,-1517.88,0
300,-300,-1479.77,0
300,-300,-1437.74,0
300,-300,-1393.09,0
300,-300,-1347.66,0
300,-300,-1303.25,0
300,-300,-1260.07,0
300,-300,-1219.23,0
300,-300,-1181.33,0
300,-300,-1145.90,0
300,-300,-1112.46,0
300,-300,-1081.28,0
300,-300,-1052.28,0
300,-300,-1025.99,0
300,-300,-1003.22,0
300,-300,-985.66,0
300,-300,-974.43,0
300,-300,-971.37,0
300,-300,-978.31,0
300,-300,-995.62,0
300,-300,-1023.99,0
300,-300,-1063.02,0
300,-300,-1111.81,0
300,-300,-1168.62,0
300,-300,-1231.45,0
300,-300,-1297.80,0
300,-300,-1366.56,0
300,-300,-1435.02,0
300,-300,-1502.03,0
300,-300,-1567.36,0
300,-300,-1630.62,0
300,-300,-1691.71,0
300,-300,-1751.12,0
300,-300,-1808.87,0
300,-300,-1865.03,0
300,-300,-1918.97,0
300,-300,-1970.31,0
300,-300,-2017.04,0
300,-300,-2058.73,0
300,-300,-2094.01,0
300,-300,-2121.82,0
300,-300,-2142.14,0
300,-300,-2155.15,0
300,-300,-2161.90,0
300,-300,-2164.77,0
300,-300,-2166.03,0
300,-300,-2168.16,0
300,-300,-2172.25,0
300,-300,-2181.45,0
300,-300,-2195.79,0
300,-300,-2215.01,0
300,-300,-2237.52,0
300,-300,-2261.42,0
300,-300,-2283.66,0
300,-300,-2300.81,0
300,-300,-2308.27,0
300,-300,-2304.92,0
300,-300,-2289.26,0
300,-300,-2260.51,0
300,-300,-2220.09,0
300,-300,-2170.20,0
300,-300,-2113.99,0
300,-300,-2055.36,0
300,-300,-1997.89,0
300,-300,-1945.03,0
300,-300,-1899.13,0
300,-300,-1860.55,0
300,-300,-1831.23,0
300,-300,-1808.08,0
300,-300,-1789.35,0
300,-300,-1772.48,0
300,-300,-1753.97,0
300,-300,-1731.24,0
300,-300,-1702.23,0
300,-300,-1665.74,0
300,-300,-1621.45,0
300,-300,-1570.71,0
300,-300,-1514.54,0
300,-300,-1455.18,0
300,-300,-1395.02,0
300,-300,-1335.98,0
300,-300,-1279.84,0
300,-300,-1227.03,0
300,-300,-1178.57,0
300,-300,-1133.96,0
300,-300,-1092.68,0
300,-300,-1055.09,0
300,-300,-1021.04,0
300,-300,-990.49,0
300,-300,-964.42,0
300,-300,-944.74,0
300,-300,-933.27,0
300,-300,-931.26,0
300,-300,-941.19,0
300,-300,-964.13,0
300,-300,-1000.65,0
300,-300,-1049.93,0
300,-300,-1111.18,0
300,-300,-1182.00,0
300,-300,-1259.61,0
300,-300,-1341.25,0
300,-300,-1424.04,0
300,-300,-1505.71,0
300,-300,-1584.25,0
300,-300,-1659.41,0
300,-300,-1729.90,0
300,-300,-1796.62,0
300,-300,-1859.59,0
300,-300,-1919.50,0
300,-300,-1976.55,0
300,-300,-2030.57,0
300,-300,-2080.20,0
300,-300,-2124.92,0
300,-300,-2162.87,0
300,-300,-2193.74,0
300,-300,-2214.76,0
300,-300,-2227.22,0
300,-300,-2230.29,0
300,-300,-2226.14,0
300,-300,-2216.53,0
300,-300,-2204.38,0
300,-300,-2191.48,0
300,-300,-2181.08,0
300,-300,-2174.05,0
300,-300,-2169.50,0
300,-300,-2167.98,0
300,-300,-2168.58,0
300,-300,-2167.87,0
300,-300,-2164.24,0
300,-300,-2155.15,0
300,-300,-2139.48,0
300,-300,-2115.79,0
300,-300,-2084.97,0
300,-300,-2048.04,0
300,-300,-2007.05,0
300,-300,-1965.37,0
300,-300,-1924.56,0
300,-300,-1887.00,0
300,-300,-1854.25,0
300,-300,-1826.22,0
300,-300,-1802.15,0
300,-300,-1780.23,0
300,-300,-1758.58,0
300,-300,-1734.44,0
300,-300,-1706.13,0
300,-300,-1671.90,0
300,-300,-1632.82,0
300,-300,-1587.98,0
300,-300,-1538.65,0
300,-300,-1487.03,0
300,-300,-1435.84,0
300,-300,-1386.91,0
300,-300,-1342.34,0
300,-300,-1303.21,0
300,-300,-1269.88,0
300,-300,-1241.91,0
300,-300,-1218.99,0
300,-300,-1200.42,0
300,-300,-1185.01,0
300,-300,-1172.76,0
300,-300,-1163.88,0
300,-300,-1159.34,0
300,-300,-1159.93,0
300,-300,-1167.94,0
300,-300,-1183.68,0
300,-300,-1208.42,0
300,-300,-1242.87,0
300,-300,-1286.27,0
300,-300,-1337.69,0
300,-300,-1395.62,0
300,-300,-1457.85,0
300,-300,-1522.17,0
300,-300,-1586.34,0
300,-300,-1649.25,0
300,-300,-1709.49,0
300,-300,-1766.49,0
300,-300,-1820.49,0
300,-300,-1871.32,0
300,-300,-1919.00,0
300,-300,-1964.09,0
300,-300,-2006.21,0
300,-300,-2044.61,0
300,-300,-2078.05,0
300,-300,-2106.03,0
300,-300,-2127.41,0
300,-300,-2141.19,0
300,-300,-2147.34,0
300,-300,-2146.41,0
300,-300,-2139.94,0
300,-300,-2129.43,0
300,-300,-2117.95,0
300,-300,-2107.58,0
300,-300,-2101.68,0
300,-300,-2101.58,0
300,-300,-2108.83,0
300,-300,-2122.56,0
300,-300,-2143.01,0
300,-300,-2167.02,0
300,-300,-2191.83,0
300,-300,-2214.25,0
300,-300,-2230.48,0
300,-300,-2237.46,0
300,-300,-2232.25,0
300,-300,-2214.14,0
300,-300,-2184.21,0
300,-300,-2142.13,0
300,-300,-2092.35,0
300,-300,-2037.08,0
300,-300,-1980.18,0
300,-300,-1925.17,0
300,-300,-1875.55,0
300,-300,-1832.75,0
300,-300,-1798.75,0
300,-300,-1772.19,0
300,-300,-1752.60,0
300,-300,-1739.01,0
300,-300,-1727.62,0
300,-300,-1715.11,0
300,-300,-1699.91,0
300,-300,-1679.69,0
300,-300,-1653.48,0
300,-300,-1620.84,0
300,-300,-1581.97,0
300,-300,-1538.23,0
300,-300,-1490.70,0
300,-300,-1441.97,0
300,-300,-1392.33,0
300,-300,-1343.82,0
300,-300,-1297.42,0
300,-300,-1253.63,0
300,-300,-1212.66,0
300,-300,-1174.47,0
300,-300,-1138.07,0
300,-300,-1104.88,0
300,-300,-1074.36,0
300,-300,-1047.20,0
300,-300,-1024.67,0
300,-300,-1008.45,0
300,-300,-1000.05,0
300,-300,-1000.92,0
300,-300,-1012.32,0
300,-300,-1034.67,0
300,-300,-1068.32,0
300,-300,-1112.49,0
300,-300,-1165.41,0
300,-300,-1225.46,0
300,-300,-1290.40,0
300,-300,-1358.16,0
300,-300,-1426.72,0
300,-300,-1494.82,0
300,-300,-1561.65,0
300,-300,-1627.66,0
300,-300,-1691.90,0
300,-300,-1755.48,0
300,-300,-1817.66,0
300,-300,-1879.15,0
300,-300,-1939.00,0
300,-300,-1996.09,0
300,-300,-2048.69,0
300,-300,-2094.74,0
300,-300,-2132.74,0
300,-300,-2161.64,0
300,-300,-2180.17,0
300,-300,-2188.58,0
300,-300,-2188.02,0
300,-300,-2180.05,0
300,-300,-2168.07,0
300,-300,-2154.68,0
300,-300,-2142.94,0
300,-300,-2135.33,0
300,-300,-2133.73,0
300,-300,-2138.76,0
300,-300,-2150.02,0
300,-300,-2165.31,0
300,-300,-2182.76,0
300,-300,-2198.09,0
300,-300,-2209.07,0
300,-300,-2211.90,0
300,-300,-2205.42,0
300,-300,-2187.48,0
300,-300,-2159.13,0
300,-300,-2119.69,0
300,-300,-2073.58,0
300,-300,-2022.32,0
300,-300,-1969.96,0
300,-300,-1919.51,0
300,-300,-1873.99,0
300,-300,-1834.68,0
300,-300,-1803.06,0
300,-300,-1778.57,0
300,-300,-1759.31,0
300,-300,-1744.23,0
300,-300,-1730.25,0
300,-300,-1715.79,0
300,-300,-1697.72,0
300,-300,-1674.09,0
300,-300,-1644.41,0
300,-300,-1608.31,0
300,-300,-1566.69,0
300,-300,-1520.77,0
300,-300,-1471.72,0
300,-300,-1421.41,0
300,-300,-1371.57,0
300,-300,-1323.25,0
300,-300,-1278.40,0
300,-300,-1236.50,0
300,-300,-1198.67,0
300,-300,-1164.37,0
300,-300,-1134.04,0
300,-300,-1107.63,0
300,-300,-1086.45,0
300,-300,-1070.05,0
300,-300,-1060.06,0
300,-300,-1057.88,0
300,-300,-1064.50,0
300,-300,-1080.86,0
300,-300,-1107.75,0
300,-300,-1144.94,0
300,-300,-1192.31,0
300,-300,-1248.05,0
300,-300,-1311.29,0
300,-300,-1378.32,0
300,-300,-1447.44,0
300,-300,-1516.80,0
300,-300,-1583.26,0
300,-300,-1645.98,0
300,-300,-1704.53,0
300,-300,-1758.12,0
300,-300,-1807.34,0
300,-300,-1852.67,0
300,-300,-1894.42,0
300,-300,-1933.40,0
300,-300,-1970.09,0
300,-300,-2003.58,0
300,-300,-2033.74,0
300,-300,-2059.49,0
300,-300,-2080.66,0
300,-300,-2096.28,0
300,-300,-2106.18,0
300,-300,-2110.79,0
300,-300,-2110.33,0
300,-300,-2107.16,0
300,-300,-2102.02,0
300,-300,-2097.19,0
300,-300,-2094.68,0
300,-300,-2094.79,0
300,-300,-2098.71,0
300,-300,-2105.99,0
300,-300,-2115.79,0
300,-300,-2126.74,0
300,-300,-2137.11,0
300,-300,-2143.68,0
300,-300,-2144.26,0
300,-300,-2136.77,0
300,-300,-2120.28,0
300,-300,-2093.20,0
300,-300,-2056.21,0
300,-300,-2009.55,0
300,-300,-1955.36,0
300,-300,-1895.83,0
300,-300,-1833.73,0
300,-300,-1771.88,0
300,-300,-1713.06,0
300,-300,-1659.62,0
300,-300,-1614.19,0
300,-300,-1577.07,0
300,-300,-1549.67,0
300,-300,-1530.64,0
300,-300,-1520.00,0
300,-300,-1514.81,0
300,-300,-1514.03,0
300,-300,-1514.50,0
300,-300,-1516.18,0
300,-300,-1514.69,0
300,-300,-1509.98,0
300,-300,-1500.66,0
300,-300,-1486.77,0
300,-300,-1468.13,0
300,-300,-1445.89,0
300,-300,-1419.35,0
300,-300,-1391.00,0
300,-300,-1361.40,0
300,-300,-1330.84,0
300,-300,-1300.06,0
300,-300,-1269.69,0
300,-300,-1240.18,0
300,-300,-1211.67,0
300,-300,-1184.49,0
300,-300,-1159.97,0
300,-300,-1138.00,0
300,-300,-1121.43,0
300,-300,-1110.86,0
300,-300,-1108.37,0
300,-300,-1114.98,0
300,-300,-1132.24,0
300,-300,-1160.23,0
300,-300,-1198.89,0
300,-300,-1246.93,0
300,-300,-1303.50,0
300,-300,-1365.80,0
300,-300,-1432.31,0
300,-300,-1499.51,0
300,-300,-1566.76,0
300,-300,-1631.94,0
300,-300,-1694.57,0
300,-300,-1754.07,0
300,-300,-1811.02,0
300,-300,-1865.39,0
300,-300,-1919.15,0
300,-300,-1970.85,0
300,-300,-2021.79,0
300,-300,-2070.13,0
300,-300,-2116.63,0
300,-300,-2158.93,0
300,-300,-2196.45,0
300,-300,-2227.48,0
300,-300,-2251.76,0
300,-300,-2268.83,0
300,-300,-2280.72,0
300,-300,-2287.18,0
300,-300,-2290.80,0
300,-300,-2293.50,0
300,-300,-2296.67,0
300,-300,-2301.28,0
300,-300,-2308.47,0
300,-300,-2317.40,0
300,-300,-2327.22,0
300,-300,-2334.62,0
300,-300,-2335.38,0
300,-300,-2328.51,0
300,-300,-2310.12,0
300,-300,-2279.21,0
300,-300,-2234.57,0
300,-300,-2176.18,0
300,-300,-2107.25,0
300,-300,-2029.93,0
300,-300,-1949.01,0
300,-300,-1867.94,0
300,-300,-1790.15,0
300,-300,-1719.93,0
300,-300,-1658.94,0
300,-300,-1607.79,0
300,-300,-1566.98,0
300,-300,-1534.05,0
300,-300,-1507.40,0
300,-300,-1483.31,0
300,-300,-1459.97,0
300,-300,-1434.73,0
300,-300,-1407.07,0
300,-300,-1375.59,0
300,-300,-1341.35,0
300,-300,-1305.00,0
300,-300,-1268.08,0
300,-300,-1231.90,0
300,-300,-1197.89,0
300,-300,-1166.63,0
300,-300,-1138.79,0
300,-300,-1114.41,0
300,-300,-1092.74,0
300,-300,-1073.11,0
300,-300,-1055.51,0
300,-300,-1039.73,0
300,-300,-1026.42,0
300,-300,-1016.26,0
300,-300,-1012.07,0
300,-300,-1015.36,0
300,-300,-1028.65,0
300,-300,-1054.52,0
300,-300,-1093.52,0
300,-300,-1146.27,0
300,-300,-1213.06,0
300,-300,-1291.24,0
300,-300,-1379.05,0
300,-300,-1473.21,0
300,-300,-1570.90,0
300,-300,-1668.31,0
300,-300,-1763.68,0
300,-300,-1854.62,0
300,-300,-1940.30,0
300,-300,-2019.72,0
300,-300,-2094.01,0
300,-300,-2162.18,0
300,-300,-2225.67,0
300,-300,-2284.05,0
300,-300,-2337.33,0
300,-300,-2384.58,0
300,-300,-2424.35,0
300,-300,-2455.33,0
300,-300,-2476.88,0
300,-300,-2487.34,0
300,-300,-2487.02,0
300,-300,-2476.89,0
300,-300,-2458.59,0
300,-300,-2434.67,0
300,-300,-2408.16,0
300,-300,-2382.10,0
300,-300,-2358.26,0
300,-300,-2339.08,0
300,-300,-2324.74,0
300,-300,-2314.57,0
300,-300,-2307.67,0
300,-300,-2301.25,0
300,-300,-2293.07,0
300,-300,-2280.02,0
300,-300,-2260.43,0
300,-300,-2233.20,0
300,-300,-2198.30,0
300,-300,-2156.46,0
300,-300,-2110.15,0
300,-300,-2060.75,0
300,-300,-2012.10,0
300,-300,-1965.33,0
300,-300,-1922.52,0
300,-300,-1884.13,0
300,-300,-1849.75,0
300,-300,-1817.75,0
300,-300,-1787.07,0
300,-300,-1754.88,0
300,-300,-1719.65,0
300,-300,-1681.66,0
300,-300,-1638.47,0
300,-300,-1590.54,0
300,-300,-1539.55,0
300,-300,-1486.81,0
300,-300,-1434.88,0
300,-300,-1385.60,0
300,-300,-1340.54,0
300,-300,-1300.82,0
300,-300,-1266.61,0
300,-300,-1238.64,0
300,-300,-1215.29,0
300,-300,-1195.57,0
300,-300,-1179.35,0
300,-300,-1165.42,0
300,-300,-1154.17,0
300,-300,-1145.42,0
300,-300,-1140.66,0
300,-300,-1140.72,0
300,-300,-1146.95,0
300,-300,-1159.82,0
300,-300,-1180.97,0
300,-300,-1209.71,0
300,-300,-1246.30,0
300,-300,-1289.18,0
300,-300,-1337.22,0
300,-300,-1388.43,0
300,-300,-1441.05,0
300,-300,-1494.64,0
300,-300,-1546.90,0
300,-300,-1598.18,0
300,-300,-1648.12,0
300,-300,-1696.78,0
300,-300,-1744.06,0
300,-300,-1790.42,0
300,-300,-1835.93,0
300,-300,-1879.93,0
300,-300,-1922.36,0
300,-300,-1961.82,0
300,-300,-1996.75,0
300,-300,-2026.85,0
300,-300,-2051.47,0
300,-300,-2069.62,0
300,-300,-2082.06,0
300,-300,-2088.94,0
300,-300,-2092.48,0
300,-300,-2094.36,0
300,-300,-2096.48,0
300,-300,-2100.28,0
300,-300,-2107.12,0
300,-300,-2117.24,0
300,-300,-2130.52,0
300,-300,-2145.39,0
300,-300,-2159.74,0
300,-300,-2171.10,0
300,-300,-2176.95,0
300,-300,-2173.63,0
300,-300,-2160.13,0
300,-300,-2135.67,0
300,-300,-2100.99,0
300,-300,-2056.51,0
300,-300,-2005.48,0
300,-300,-1950.83,0
300,-300,-1895.86,0
300,-300,-1843.55,0
300,-300,-1796.98,0
300,-300,-1756.55,0
300,-300,-1723.80,0
300,-300,-1697.96,0
300,-300,-1677.18,0
300,-300,-1659.35,0
300,-300,-1641.43,0
300,-300,-1621.15,0
300,-300,-1596.71,0
300,-300,-1566.00,0
300,-300,-1529.70,0
300,-300,-1487.09,0
300,-300,-1440.50,0
300,-300,-1391.06,0
300,-300,-1341.51,0
300,-300,-1293.57,0
300,-300,-1249.23,0
300,-300,-1209.27,0
300,-300,-1175.40,0
300,-300,-1147.10,0
300,-300,-1124.86,0
300,-300,-1108.08,0
300,-300,-1096.87,0
300,-300,-1090.55,0
300,-300,-1089.79,0
300,-300,-1094.83,0
300,-300,-1107.05,0
300,-300,-1126.66,0
300,-300,-1154.99,0
300,-300,-1192.17,0
300,-300,-1239.45,0
300,-300,-1295.20,0
300,-300,-1358.84,0
300,-300,-1428.68,0
300,-300,-1503.04,0
300,-300,-1579.95,0
300,-300,-1657.29,0
300,-300,-1733.47,0
300,-300,-1807.35,0
300,-300,-1877.75,0
300,-300,-1945.20,0
300,-300,-2008.55,0
300,-300,-2068.62,0
300,-300,-2124.82,0
300,-300,-2177.20,0
300,-300,-2224.94,0
300,-300,-2267.55,0
300,-300,-2303.75,0
300,-300,-2332.50,0
300,-300,-2352.67,0
300,-300,-2364.30,0
300,-300,-2367.24,0
300,-300,-2362.50,0
300,-300,-2351.75,0
300,-300,-2336.57,0
300,-300,-2319.63,0
300,-300,-2303.57,0
300,-300,-2289.85,0
300,-300,-2280.01,0
300,-300,-2275.09,0
300,-300,-2272.76,0
300,-300,-2272.93,0
300,-300,-2272.42,0
300,-300,-2267.92,0
300,-300,-2257.23,0
300,-300,-2237.10,0
300,-300,-2206.22,0
300,-300,-2162.71,0
300,-300,-2107.79,0
300,-300,-2041.55,0
300,-300,-1968.40,0
300,-300,-1890.34,0
300,-300,-1811.32,0
300,-300,-1735.29,0
300,-300,-1665.57,0
300,-300,-1604.06,0
300,-300,-1552.67,0
300,-300,-1511.20,0
300,-300,-1478.67,0
300,-300,-1453.79,0
300,-300,-1433.69,0
300,-300,-1415.53,0
300,-300,-1398.02,0
300,-300,-1378.04,0
300,-300,-1354.45,0
300,-300,-1326.44,0
300,-300,-1294.64,0
300,-300,-1259.87,0
300,-300,-1223.56,0
300,-300,-1187.81,0
300,-300,-1153.60,0
300,-300,-1122.58,0
300,-300,-1096.58,0
300,-300,-1075.50,0
300,-300,-1059.66,0
300,-300,-1049.46,0
300,-300,-1044.69,0
300,-300,-1044.99,0
300,-300,-1050.46,0
300,-300,-1060.67,0
300,-300,-1077.42,0
300,-300,-1099.78,0
300,-300,-1129.78,0
300,-300,-1166.93,0
300,-300,-1212.27,0
300,-300,-1265.31,0
300,-300,-1325.68,0
300,-300,-1392.10,0
300,-300,-1463.72,0
300,-300,-1537.08,0
300,-300,-1612.49,0
300,-300,-1685.87,0
300,-300,-1756.65,0
300,-300,-1823.24,0
300,-300,-1885.26,0
300,-300,-1942.07,0
300,-300,-1994.17,0
300,-300,-2041.19,0
300,-300,-2084.22,0
300,-300,-2123.04,0
300,-300,-2157.65,0
300,-300,-2186.38,0
300,-300,-2209.69,0
300,-300,-2225.99,0
300,-300,-2234.56,0
300,-300,-2234.72,0
300,-300,-2226.39,0
300,-300,-2210.74,0
300,-300,-2189.40,0
300,-300,-2164.14,0
300,-300,-2137.67,0
300,-300,-2111.67,0
300,-300,-2088.75,0
300,-300,-2070.53,0
300,-300,-2057.21,0
300,-300,-2048.75,0
300,-300,-2043.87,0
300,-300,-2041.10,0
300,-300,-2038.44,0
300,-300,-2033.72,0
300,-300,-2025.37,0
300,-300,-2012.87,0
300,-300,-1995.54,0
300,-300,-1974.34,0
300,-300,-1950.32,0
300,-300,-1925.40,0
300,-300,-1900.74,0
300,-300,-1877.95,0
300,-300,-1857.85,0
300,-300,-1841.32,0
300,-300,-1826.06,0
300,-300,-1813.46,0
300,-300,-1799.61,0
300,-300,-1783.67,0
300,-300,-1763.57,0
300,-300,-1738.13,0
300,-300,-1706.51,0
300,-300,-1668.72,0
300,-300,-1623.97,0
300,-300,-1574.99,0
300,-300,-1523.17,0
300,-300,-1469.79,0
300,-300,-1417.22,0
300,-300,-1367.41,0
300,-300,-1321.90,0
300,-300,-1281.96,0
300,-300,-1248.61,0
300,-300,-1222.55,0
300,-300,-1202.81,0
300,-300,-1190.82,0
300,-300,-1185.16,0
300,-300,-1185.99,0
300,-300,-1192.45,0
300,-300,-1203.82,0
300,-300,-1219.10,0
300,-300,-1237.46,0
300,-300,-1257.98,0
300,-300,-1279.96,0
300,-300,-1302.91,0
300,-300,-1326.70,0
300,-300,-1350.20,0
300,-300,-1374.67,0
300,-300,-1399.22,0
300,-300,-1424.73,0
300,-300,-1450.68,0
300,-300,-1477.91,0
300,-300,-1505.39,0
300,-300,-1532.92,0
300,-300,-1560.51,0
300,-300,-1586.25,0
300,-300,-1609.65,0
300,-300,-1629.47,0
300,-300,-1645.41,0
300,-300,-1657.36,0
300,-300,-1665.58,0
300,-300,-1671.14,0
300,-300,-1675.43,0
300,-300,-1680.23,0
300,-300,-1688.43,0
300,-300,-1700.86,0
300,-300,-1720.75,0
300,-300,-1746.90,0
300,-300,-1780.80,0
300,-300,-1821.28,0
300,-300,-1866.94,0
300,-300,-1915.49,0
300,-300,-1964.72,0
300,-300,-2011.71,0
300,-300,-2053.77,0
300,-300,-2090.38,0
300,-300,-2119.62,0
300,-300,-2141.78,0
300,-300,-2157.50,0
300,-300,-2167.11,0
300,-300,-2172.13,0
300,-300,-2174.11,0
300,-300,-2173.51,0
300,-300,-2171.64,0
300,-300,-2166.90,0
300,-300,-2160.23,0
300,-300,-2150.53,0
300,-300,-2136.97,0
300,-300,-2118.47,0
300,-300,-2094.34,0
300,-300,-2064.07,0
300,-300,-2028.03,0
300,-300,-1986.64,0
300,-300,-1940.94,0
300,-300,-1891.85,0
300,-300,-1840.32,0
300,-300,-1787.61,0
300,-300,-1734.58,0
300,-300,-1680.70,0
300,-300,-1626.67,0
300,-300,-1571.96,0
300,-300,-1517.25,0
300,-300,-1461.68,0
300,-300,-1406.87,0
300,-300,-1353.57,0
300,-300,-1303.98,0
300,-300,-1259.00,0
300,-300,-1222.30,0
300,-300,-1194.88,0
300,-300,-1179.36,0
300,-300,-1176.04,0
300,-300,-1185.77,0
300,-300,-1207.12,0
300,-300,-1238.94,0
300,-300,-1278.60,0
300,-300,-1324.32,0
300,-300,-1372.02,0
300,-300,-1420.02,0
300,-300,-1465.71,0
300,-300,-1509.01,0
300,-300,-1548.83,0
300,-300,-1586.19,0
300,-300,-1621.81,0
300,-300,-1657.27,0
300,-300,-1693.05,0
300,-300,-1731.86,0
300,-300,-1772.14,0
300,-300,-1814.22,0
300,-300,-1856.72,0
300,-300,-1898.43,0
300,-300,-1937.07,0
300,-300,-1971.36,0
300,-300,-1999.85,0
300,-300,-2022.18,0
300,-300,-2038.17,0
300,-300,-2049.34,0
300,-300,-2056.90,0
300,-300,-2063.46,0
300,-300,-2070.93,0
300,-300,-2081.53,0
300,-300,-2096.24,0
300,-300,-2116.05,0
300,-300,-2139.59,0
300,-300,-2165.12,0
300,-300,-2190.63,0
300,-300,-2212.20,0
300,-300,-2227.57,0
300,-300,-2234.09,0
300,-300,-2229.67,0
300,-300,-2213.65,0
300,-300,-2185.95,0
300,-300,-2148.81,0
300,-300,-2104.19,0
300,-300,-2055.51,0
300,-300,-2005.86,0
300,-300,-1958.49,0
300,-300,-1915.70,0
300,-300,-1879.39,0
300,-300,-1850.04,0
300,-300,-1827.46,0
300,-300,-1810.00,0
300,-300,-1795.55,0
300,-300,-1781.79,0
300,-300,-1766.76,0
300,-300,-1747.80,0
300,-300,-1725.10,0
300,-300,-1696.26,0
300,-300,-1662.04,0
300,-300,-1623.28,0
300,-300,-1580.66,0
300,-300,-1535.97,0
300,-300,-1490.11,0
300,-300,-1444.40,0
300,-300,-1399.36,0
300,-300,-1355.55,0
300,-300,-1314.70,0
300,-300,-1275.52,0
300,-300,-1238.59,0
300,-300,-1204.38,0
300,-300,-1173.53,0
300,-300,-1147.01,0
300,-300,-1125.46,0
300,-300,-1110.11,0
300,-300,-1101.76,0
300,-300,-1102.08,0
300,-300,-1111.56,0
300,-300,-1130.09,0
300,-300,-1157.84,0
300,-300,-1193.51,0
300,-300,-1236.68,0
300,-300,-1285.23,0
300,-300,-1338.24,0
300,-300,-1393.58,0
300,-300,-1450.82,0
300,-300,-1508.25,0
300,-300,-1565.82,0
300,-300,-1623.11,0
300,-300,-1680.66,0
300,-300,-1738.28,0
300,-300,-1796.14,0
300,-300,-1853.96,0
300,-300,-1911.60,0
300,-300,-1968.94,0
300,-300,-2024.03,0
300,-300,-2075.99,0
300,-300,-2123.26,0
300,-300,-2165.06,0
300,-300,-2200.77,0
300,-300,-2229.54,0
300,-300,-2252.39,0
300,-300,-2269.22,0
300,-300,-2282.43,0
300,-300,-2294.01,0
300,-300,-2305.19,0
300,-300,-2317.38,0
300,-300,-2332.35,0
300,-300,-2349.75,0
300,-300,-2370.03,0
300,-300,-2391.79,0
300,-300,-2413.48,0
300,-300,-2432.28,0
300,-300,-2446.53,0
300,-300,-2451.42,0
