Tran,San,Gia_tri_PPG,Truc_0
300,-300,1033.61,0
300,-300,1321.19,0
300,-300,1536.69,0
300,-300,1676.53,0
300,-300,1742.22,0
300,-300,1738,0
300,-300,1669.38,0
300,-300,1542.01,0
300,-300,1360.94,0
300,-300,1130.57,0
300,-300,851.41,0
300,-300,531.6,0
300,-300,170.3,0
300,-300,-226.62,0
300,-300,-653.39,0
300,-300,-1100.26,0
300,-300,-1556.49,0
300,-300,-2009.65,0
300,-300,-2447.3,0
300,-300,-2857.8,0
300,-300,-3233.27,0
300,-300,-3563.82,0
300,-300,-3849.28,0
300,-300,-4087.85,0
300,-300,-4282.37,0
300,-300,-4435.98,0
300,-300,-4553.59,0
300,-300,-4638.76,0
300,-300,-4695.03,0
300,-300,-4722.4,0
300,-300,-4711.85,0
300,-300,-4656.76,0
300,-300,-4551.66,0
300,-300,-4390.36,0
300,-300,-4169.54,0
300,-300,-3889.78,0
300,-300,-3559.09,0
300,-300,-3191.25,0
300,-300,-2806.48,0
300,-300,-2428.73,0
300,-300,-2086.8,0
300,-300,-1800.07,0
300,-300,-1589.94,0
300,-300,-1468.14,0
300,-300,-1436.33,0
300,-300,-1485.93,0
300,-300,-1598.84,0
300,-300,-1749.39,0
300,-300,-1907.22,0
300,-300,-2040.4,0
300,-300,-2120.23,0
300,-300,-2120.82,0
300,-300,-2028.1,0
300,-300,-1837.55,0
300,-300,-1554.06,0
300,-300,-1191.91,0
300,-300,-773.34,0
300,-300,-324.22,0
300,-300,127.46,0
300,-300,555.21,0
300,-300,938.21,0
300,-300,1251.79,0
300,-300,1491.08,0
300,-300,1652.28,0
300,-300,1735.93,0
300,-300,1746.14,0
300,-300,1688.36,0
300,-300,1569.42,0
300,-300,1395.05,0
300,-300,1170.92,0
300,-300,895.21,0
300,-300,579.06,0
300,-300,220.64,0
300,-300,-173.84,0
300,-300,-597.14,0
300,-300,-1039.61,0
300,-300,-1489.67,0
300,-300,-1934.57,0
300,-300,-2361.6,0
300,-300,-2758,0
300,-300,-3116.06,0
300,-300,-3425.4,0
300,-300,-3686.47,0
300,-300,-3899.04,0
300,-300,-4067.03,0
300,-300,-4197.09,0
300,-300,-4294.58,0
300,-300,-4366.56,0
300,-300,-4417.76,0
300,-300,-4450.07,0
300,-300,-4463.93,0
300,-300,-4449.64,0
300,-300,-4401.64,0
300,-300,-4311.17,0
300,-300,-4171.94,0
300,-300,-3979.64,0
300,-300,-3735.08,0
300,-300,-3443.95,0
300,-300,-3118.11,0
300,-300,-2774.73,0
300,-300,-2435.24,0
300,-300,-2122.34,0
300,-300,-1856.66,0
300,-300,-1654.74,0
300,-300,-1527.05,0
300,-300,-1475.17,0
300,-300,-1492.83,0
300,-300,-1565.8,0
300,-300,-1672.35,0
300,-300,-1787.18,0
300,-300,-1885.36,0
300,-300,-1939.03,0
300,-300,-1927.68,0
300,-300,-1836.74,0
300,-300,-1659.84,0
300,-300,-1398.61,0
300,-300,-1063.05,0
300,-300,-669.65,0
300,-300,-240.08,0
300,-300,202.92,0
300,-300,637.05,0
300,-300,1035.54,0
300,-300,1383.41,0
300,-300,1668.39,0
300,-300,1882.36,0
300,-300,2021.53,0
300,-300,2084.67,0
300,-300,2073.72,0
300,-300,1992.07,0
300,-300,1844.04,0
300,-300,1629.91,0
300,-300,1359.55,0
300,-300,1034.39,0
300,-300,659.62,0
300,-300,242.88,0
300,-300,-208.41,0
300,-300,-682.61,0
300,-300,-1168.97,0
300,-300,-1654.41,0
300,-300,-2126.94,0
300,-300,-2576.25,0
300,-300,-2990.97,0
300,-300,-3365.91,0
300,-300,-3698.53,0
300,-300,-3987.85,0
300,-300,-4237.41,0
300,-300,-4450.01,0
300,-300,-4632.13,0
300,-300,-4786.58,0
300,-300,-4917.78,0
300,-300,-5026.41,0
300,-300,-5111.08,0
300,-300,-5165.99,0
300,-300,-5187.86,0
300,-300,-5168.17,0
300,-300,-5100.41,0
300,-300,-4977.34,0
300,-300,-4798.9,0
300,-300,-4565.1,0
300,-300,-4282.95,0
300,-300,-3952.7,0
300,-300,-3595.39,0
300,-300,-3226.77,0
300,-300,-2863.92,0
300,-300,-2523.9,0
300,-300,-2222.22,0
300,-300,-1970.2,0
300,-300,-1774.84,0
300,-300,-1637.62,0
300,-300,-1553.52,0
300,-300,-1513.66,0
300,-300,-1499.36,0
300,-300,-1493.22,0
300,-300,-1472.67,0
300,-300,-1416.71,0
300,-300,-1307.23,0
300,-300,-1129.54,0
300,-300,-877.96,0
300,-300,-552.35,0
300,-300,-160.29,0
300,-300,282.67,0
300,-300,757.67,0
300,-300,1237.9,0
300,-300,1698.57,0
300,-300,2116.05,0
300,-300,2471.98,0
300,-300,2752.4,0
300,-300,2949.2,0
300,-300,3060.1,0
300,-300,3087.53,0
300,-300,3035.27,0
300,-300,2914.36,0
300,-300,2734.66,0
300,-300,2502.94,0
300,-300,2225.6,0
300,-300,1907.49,0
300,-300,1551.04,0
300,-300,1158.32,0
300,-300,731.51,0
300,-300,274.11,0
300,-300,-210.06,0
300,-300,-710.71,0
300,-300,-1219.61,0
300,-300,-1725.3,0
300,-300,-2215.81,0
300,-300,-2679.33,0
300,-300,-3107.08,0
300,-300,-3493.31,0
300,-300,-3835.55,0
300,-300,-4133.98,0
300,-300,-4390.15,0
300,-300,-4607.75,0
300,-300,-4789.63,0
300,-300,-4937.6,0
300,-300,-5050.27,0
300,-300,-5124.49,0
300,-300,-5155.52,0
300,-300,-5136.99,0
300,-300,-5062.98,0
300,-300,-4928.76,0
300,-300,-4721.24,0
300,-300,-4451.85,0
300,-300,-4128.92,0
300,-300,-3766.65,0
300,-300,-3383.12,0
300,-300,-3001.36,0
300,-300,-2643.77,0
300,-300,-2333.48,0
300,-300,-2088.23,0
300,-300,-1919.99,0
300,-300,-1835.05,0
300,-300,-1826.8,0
300,-300,-1885.27,0
300,-300,-1992.06,0
300,-300,-2122.94,0
300,-300,-2251.56,0
300,-300,-2351.4,0
300,-300,-2399.83,0
300,-300,-2377.32,0
300,-300,-2273.4,0
300,-300,-2084.74,0
300,-300,-1814.52,0
300,-300,-1473.38,0
300,-300,-1080.64,0
300,-300,-656.15,0
300,-300,-224.29,0
300,-300,192.89,0
300,-300,573.74,0
300,-300,904.55,0
300,-300,1173.57,0
300,-300,1378.32,0
300,-300,1505.76,0
300,-300,1570,0
300,-300,1572.99,0
300,-300,1519.16,0
300,-300,1413.61,0
300,-300,1260.74,0
300,-300,1064.28,0
300,-300,826.33,0
300,-300,546.4,0
300,-300,228.55,0
300,-300,-124.36,0
300,-300,-510.97,0
300,-300,-923.9,0
300,-300,-1354.99,0
300,-300,-1791.93,0
300,-300,-2222.8,0
300,-300,-2634.16,0
300,-300,-3014.97,0
300,-300,-3356.47,0
300,-300,-3652.45,0
300,-300,-3900.6,0
300,-300,-4103.41,0
300,-300,-4265.08,0
300,-300,-4393.31,0
300,-300,-4494.55,0
300,-300,-4575.71,0
300,-300,-4638.99,0
300,-300,-4683.75,0
300,-300,-4690.56,0
300,-300,-4664.29,0
300,-300,-4589.45,0
300,-300,-4462.39,0
300,-300,-4280.13,0
300,-300,-4046.82,0
300,-300,-3773.33,0
300,-300,-3477.68,0
300,-300,-3182.65,0
300,-300,-2913.35,0
300,-300,-2695.37,0
300,-300,-2549.11,0
300,-300,-2486.33,0
300,-300,-2509.7,0
300,-300,-2609.67,0
300,-300,-2766.57,0
300,-300,-2950.47,0
300,-300,-3126.61,0
300,-300,-3258.22,0
300,-300,-3312.42,0
300,-300,-3264.29,0
300,-300,-3096.38,0
300,-300,-2805.86,0
300,-300,-2401.07,0
300,-300,-1901.41,0
300,-300,-1335.16,0
300,-300,-736.18,0
300,-300,-138.74,0
300,-300,425.97,0
300,-300,932.28,0
300,-300,1361.03,0
300,-300,1704.72,0
300,-300,1946.71,0
300,-300,2100.09,0
300,-300,2168.99,0
300,-300,2158.37,0
300,-300,2073.9,0
300,-300,1919.84,0
300,-300,1699.8,0
300,-300,1411.51,0
300,-300,1062.52,0
300,-300,655.71,0
300,-300,200.95,0
300,-300,-292.8,0
300,-300,-809.44,0
300,-300,-1331.54,0
300,-300,-1838.24,0
300,-300,-2310.68,0
300,-300,-2731.52,0
300,-300,-3086.68,0
300,-300,-3369.11,0
300,-300,-3577.97,0
300,-300,-3716.57,0
300,-300,-3796.33,0
300,-300,-3830.86,0
300,-300,-3835.7,0
300,-300,-3824.52,0
300,-300,-3807.84,0
300,-300,-3791.36,0
300,-300,-3763.44,0
300,-300,-3724.55,0
300,-300,-3663.25,0
300,-300,-3567.9,0
300,-300,-3429.03,0
300,-300,-3243.01,0
300,-300,-3012.26,0
300,-300,-2746.49,0
300,-300,-2463.2,0
300,-300,-2184.43,0
300,-300,-1939.58,0
300,-300,-1750.71,0
300,-300,-1635.04,0
300,-300,-1606.37,0
300,-300,-1665.3,0
300,-300,-1799.26,0
300,-300,-1987.8,0
300,-300,-2200.89,0
300,-300,-2405.48,0
300,-300,-2567.91,0
300,-300,-2656.24,0
300,-300,-2646.57,0
300,-300,-2525.98,0
300,-300,-2293.02,0
300,-300,-1958.89,0
300,-300,-1542.49,0
300,-300,-1072.19,0
300,-300,-577.5,0
300,-300,-90.71,0
300,-300,361.37,0
300,-300,755.5,0
300,-300,1080.85,0
300,-300,1315.83,0
300,-300,1471.79,0
300,-300,1550.77,0
300,-300,1558.51,0
300,-300,1500.66,0
300,-300,1383.64,0
300,-300,1211.8,0
300,-300,988.14,0
300,-300,715.96,0
300,-300,397.78,0
300,-300,38.43,0
300,-300,-354.52,0
300,-300,-771.45,0
300,-300,-1198.86,0
300,-300,-1621.77,0
300,-300,-2023.87,0
300,-300,-2389.84,0
300,-300,-2707.21,0
300,-300,-2967.21,0
300,-300,-3166.72,0
300,-300,-3306.52,0
300,-300,-3394.39,0
300,-300,-3442.01,0
300,-300,-3460.61,0
300,-300,-3462.95,0
300,-300,-3457.57,0
300,-300,-3450.82,0
300,-300,-3441.14,0
300,-300,-3424.73,0
300,-300,-3391.57,0
300,-300,-3329.58,0
300,-300,-3226.86,0
300,-300,-3073.94,0
300,-300,-2866.52,0
300,-300,-2607.84,0
300,-300,-2308.47,0
300,-300,-1986.67,0
300,-300,-1665.19,0
300,-300,-1372.51,0
300,-300,-1127.85,0
300,-300,-956.61,0
300,-300,-871.82,0
300,-300,-878.37,0
300,-300,-969.16,0
300,-300,-1129.6,0
300,-300,-1334.93,0
300,-300,-1556.66,0
300,-300,-1766.49,0
300,-300,-1931.45,0
300,-300,-2028.78,0
300,-300,-2040.3,0
300,-300,-1957.58,0
300,-300,-1782.48,0
300,-300,-1524.42,0
300,-300,-1201.09,0
300,-300,-834.25,0
300,-300,-448.32,0
300,-300,-69.04,0
300,-300,287.6,0
300,-300,593.86,0
300,-300,845.51,0
300,-300,1037.05,0
300,-300,1164.91,0
300,-300,1230.25,0
300,-300,1235.47,0
300,-300,1184.41,0
300,-300,1079.75,0
300,-300,921.91,0
300,-300,714.2,0
300,-300,461.67,0
300,-300,163.85,0
300,-300,-175.84,0
300,-300,-553.01,0
300,-300,-960.35,0
300,-300,-1389.34,0
300,-300,-1829.09,0
300,-300,-2268.56,0
300,-300,-2696.92,0
300,-300,-3102.93,0
300,-300,-3479.23,0
300,-300,-3820.65,0
300,-300,-4122.23,0
300,-300,-4383.72,0
300,-300,-4604.48,0
300,-300,-4787.17,0
300,-300,-4932.93,0
300,-300,-5043.5,0
300,-300,-5110.82,0
300,-300,-5133.41,0
300,-300,-5102.62,0
300,-300,-5011.34,0
300,-300,-4852.86,0
300,-300,-4624.67,0
300,-300,-4328.15,0
300,-300,-3971.14,0
300,-300,-3568.53,0
300,-300,-3143.92,0
300,-300,-2722.2,0
300,-300,-2330.66,0
300,-300,-1996.27,0
300,-300,-1740.73,0
300,-300,-1577.81,0
300,-300,-1512.57,0
300,-300,-1538.65,0
300,-300,-1640.01,0
300,-300,-1791.86,0
300,-300,-1965.95,0
300,-300,-2127.21,0
300,-300,-2246.35,0
300,-300,-2297.93,0
300,-300,-2264.7,0
300,-300,-2138.41,0
300,-300,-1922.32,0
300,-300,-1626.56,0
300,-300,-1270.26,0
300,-300,-874.78,0
300,-300,-465.99,0
300,-300,-65.84,0
300,-300,303.39,0
300,-300,627.8,0
300,-300,895.44,0
300,-300,1101.43,0
300,-300,1243.66,0
300,-300,1322.75,0
300,-300,1340.15,0
300,-300,1298.64,0
300,-300,1196.52,0
300,-300,1037.72,0
300,-300,821.73,0
300,-300,552.45,0
300,-300,233.25,0
300,-300,-128.55,0
300,-300,-524.57,0
300,-300,-941.62,0
300,-300,-1368.12,0
300,-300,-1789.99,0
300,-300,-2193.88,0
300,-300,-2570.72,0
300,-300,-2909.52,0
300,-300,-3209.02,0
300,-300,-3468.27,0
300,-300,-3688.76,0
300,-300,-3874.81,0
300,-300,-4029.97,0
300,-300,-4159.36,0
300,-300,-4265.29,0
300,-300,-4345.6,0
300,-300,-4396.6,0
300,-300,-4409.65,0
300,-300,-4378.81,0
300,-300,-4295.89,0
300,-300,-4154.72,0
300,-300,-3954.44,0
300,-300,-3697.34,0
300,-300,-3393.17,0
300,-300,-3055.59,0
300,-300,-2707.76,0
300,-300,-2371.83,0
300,-300,-2067.68,0
300,-300,-1817.44,0
300,-300,-1636.27,0
300,-300,-1530.71,0
300,-300,-1499.59,0
300,-300,-1532.58,0
300,-300,-1612.04,0
300,-300,-1718.73,0
300,-300,-1823.42,0
300,-300,-1900.93,0
300,-300,-1927.95,0
300,-300,-1885.4,0
300,-300,-1762.84,0
300,-300,-1556.65,0
300,-300,-1272.75,0
300,-300,-923.18,0
300,-300,-527.01,0
300,-300,-105.89,0
300,-300,316.38,0
300,-300,719.33,0
300,-300,1077.68,0
300,-300,1378.78,0
300,-300,1610.73,0
300,-300,1767.93,0
300,-300,1847.69,0
300,-300,1851.45,0
300,-300,1782.59,0
300,-300,1643.07,0
300,-300,1438.44,0
300,-300,1175.96,0
300,-300,860.03,0
300,-300,496.99,0
300,-300,93.88,0
300,-300,-340.41,0
300,-300,-795.54,0
300,-300,-1260.45,0
300,-300,-1724.36,0
300,-300,-2174.96,0
300,-300,-2602.05,0
300,-300,-2994.8,0
300,-300,-3349.09,0
300,-300,-3660.02,0
300,-300,-3926.23,0
300,-300,-4148.78,0
300,-300,-4331.47,0
300,-300,-4478.41,0
300,-300,-4598.63,0
300,-300,-4691.94,0
300,-300,-4761.75,0
300,-300,-4806.11,0
300,-300,-4820.61,0
300,-300,-4797.55,0
300,-300,-4729.99,0
300,-300,-4610.23,0
300,-300,-4433.32,0
300,-300,-4198.02,0
300,-300,-3901.34,0
300,-300,-3562.38,0
300,-300,-3196.56,0
300,-300,-2822.52,0
300,-300,-2467.18,0
300,-300,-2154.12,0
300,-300,-1904.59,0
300,-300,-1733.64,0
300,-300,-1648.5,0
300,-300,-1646.01,0
300,-300,-1716.2,0
300,-300,-1835.21,0
300,-300,-1976.08,0
300,-300,-2108.29,0
300,-300,-2200.6,0
300,-300,-2225.44,0
300,-300,-2162.85,0
300,-300,-2001.07,0
300,-300,-1739.14,0
300,-300,-1385.21,0
300,-300,-956.49,0
300,-300,-478.41,0
300,-300,22.91,0
300,-300,517.37,0
300,-300,978.24,0
300,-300,1383.72,0
300,-300,1718.41,0
300,-300,1972.86,0
300,-300,2143.12,0
300,-300,2230.76,0
300,-300,2239.18,0
300,-300,2175.68,0
300,-300,2045.74,0
300,-300,1858.78,0
300,-300,1619.92,0
300,-300,1333.74,0
300,-300,1004.65,0
300,-300,638.27,0
300,-300,240.52,0
300,-300,-183.16,0
300,-300,-623.44,0
300,-300,-1072.13,0
300,-300,-1515.78,0
300,-300,-1947.8,0
300,-300,-2358.37,0
300,-300,-2738.91,0
300,-300,-3084.31,0
300,-300,-3390.58,0
300,-300,-3657.36,0
300,-300,-3886.6,0
300,-300,-4077.89,0
300,-300,-4232.84,0
300,-300,-4350.71,0
300,-300,-4427.73,0
300,-300,-4459.4,0
300,-300,-4438.2,0
300,-300,-4358.03,0
300,-300,-4213.03,0
300,-300,-4001.32,0
300,-300,-3722.68,0
300,-300,-3391.96,0
300,-300,-3024.65,0
300,-300,-2640.68,0
300,-300,-2267.08,0
300,-300,-1931.49,0
300,-300,-1659.01,0
300,-300,-1469.78,0
300,-300,-1374.69,0
300,-300,-1374.8,0
300,-300,-1465.81,0
300,-300,-1625.58,0
300,-300,-1826.72,0
300,-300,-2037.08,0
300,-300,-2222.14,0
300,-300,-2349.04,0
300,-300,-2391.07,0
300,-300,-2330.52,0
300,-300,-2160.79,0
300,-300,-1885.96,0
300,-300,-1518.3,0
300,-300,-1084.44,0
300,-300,-609.44,0
300,-300,-128.72,0
300,-300,327.26,0
300,-300,731.2,0
300,-300,1061.19,0
300,-300,1301.66,0
300,-300,1445.51,0
300,-300,1488.74,0
300,-300,1437.16,0
300,-300,1299.77,0
300,-300,1079.49,0
300,-300,796.28,0
300,-300,461.02,0
300,-300,83.89,0
300,-300,-324.8,0
300,-300,-755.28,0
300,-300,-1197.41,0
300,-300,-1644.53,0
300,-300,-2084.61,0
300,-300,-2509.91,0
300,-300,-2911.19,0
300,-300,-3283.96,0
300,-300,-3622.1,0
300,-300,-3921.84,0
300,-300,-4180.26,0
300,-300,-4397.25,0
300,-300,-4572.66,0
300,-300,-4710.76,0
300,-300,-4809.48,0
300,-300,-4870.46,0
300,-300,-4892.79,0
300,-300,-4872.25,0
300,-300,-4804.71,0
300,-300,-4686,0
300,-300,-4511.59,0
300,-300,-4280.08,0
300,-300,-3993.72,0
300,-300,-3656.54,0
300,-300,-3287.29,0
300,-300,-2902.26,0
300,-300,-2523.7,0
300,-300,-2177.21,0
300,-300,-1886.63,0
300,-300,-1673.54,0
300,-300,-1551.67,0
300,-300,-1526.77,0
300,-300,-1593.4,0
300,-300,-1739.63,0
300,-300,-1940.39,0
300,-300,-2164.12,0
300,-300,-2376.44,0
300,-300,-2543.17,0
300,-300,-2633.55,0
300,-300,-2624.82,0
300,-300,-2504.48,0
300,-300,-2271.41,0
300,-300,-1935.97,0
300,-300,-1518.27,0
300,-300,-1045.75,0
300,-300,-548.84,0
300,-300,-62.03,0
300,-300,385.75,0
300,-300,770.64,0
300,-300,1074.43,0
300,-300,1288.48,0
300,-300,1409.8,0
300,-300,1438.11,0
300,-300,1383.44,0
300,-300,1255.08,0
300,-300,1059.04,0
300,-300,809.7,0
300,-300,514.38,0
300,-300,180.19,0
300,-300,-187.21,0
300,-300,-580.51,0
300,-300,-992.76,0
300,-300,-1420.49,0
300,-300,-1850.99,0
300,-300,-2278.26,0
300,-300,-2688.05,0
300,-300,-3074.59,0
300,-300,-3430.33,0
300,-300,-3749.41,0
300,-300,-4029.12,0
300,-300,-4267.87,0
300,-300,-4466.92,0
300,-300,-4630.73,0
300,-300,-4759.47,0
300,-300,-4855.44,0
300,-300,-4921.29,0
300,-300,-4950.27,0
300,-300,-4936.31,0
300,-300,-4870.96,0
300,-300,-4747.53,0
300,-300,-4559.56,0
300,-300,-4305.54,0
300,-300,-3984.17,0
300,-300,-3613.67,0
300,-300,-3207.26,0
300,-300,-2791.79,0
300,-300,-2395.24,0
300,-300,-2046.58,0
300,-300,-1772.44,0
300,-300,-1592.89,0
300,-300,-1518.16,0
300,-300,-1547.16,0
300,-300,-1670.15,0
300,-300,-1860.21,0
300,-300,-2082.04,0
300,-300,-2300.28,0
300,-300,-2474.53,0
300,-300,-2568.63,0
300,-300,-2554.27,0
300,-300,-2414.15,0
300,-300,-2143.95,0
300,-300,-1749.96,0
300,-300,-1256.24,0
300,-300,-693.11,0
300,-300,-93.98,0
300,-300,499.71,0
300,-300,1053.73,0
300,-300,1537.66,0
300,-300,1930,0
300,-300,2216.9,0
300,-300,2394.35,0
300,-300,2462.15,0
300,-300,2431.76,0
300,-300,2314.55,0
300,-300,2119.77,0
300,-300,1866.04,0
300,-300,1563.44,0
300,-300,1220.56,0
300,-300,845.59,0
300,-300,444.47,0
300,-300,24.98,0
300,-300,-406.96,0
300,-300,-840.52,0
300,-300,-1269.41,0
300,-300,-1681.27,0
300,-300,-2068.75,0
300,-300,-2422.48,0
300,-300,-2735.71,0
300,-300,-3002.99,0
300,-300,-3221.38,0
300,-300,-3389.52,0
300,-300,-3493.35,0
300,-300,-3541.34,0
300,-300,-3529.29,0
300,-300,-3457.17,0
300,-300,-3325.64,0
300,-300,-3136.14,0
300,-300,-2892.38,0
300,-300,-2601.34,0
300,-300,-2273.77,0
300,-300,-1924.24,0
300,-300,-1575.62,0
300,-300,-1247.94,0
300,-300,-961.1,0
300,-300,-739.9,0
300,-300,-602.43,0
300,-300,-559.95,0
300,-300,-615.15,0
300,-300,-761.08,0
300,-300,-981.56,0
300,-300,-1248.36,0
300,-300,-1532.19,0
300,-300,-1799.6,0
300,-300,-2012.8,0
300,-300,-2146.87,0
300,-300,-2180.48,0
300,-300,-2101.96,0
300,-300,-1911.12,0
300,-300,-1618.55,0
300,-300,-1244.22,0
300,-300,-819.05,0
300,-300,-371.6,0
300,-300,64.5,0
300,-300,461.94,0
300,-300,793.78,0
300,-300,1041.99,0
300,-300,1195.49,0
300,-300,1249.08,0
300,-300,1203.23,0
300,-300,1062.8,0
300,-300,833.25,0
300,-300,528.32,0
300,-300,159.57,0
300,-300,-266.01,0
300,-300,-729.58,0
300,-300,-1219.06,0
300,-300,-1719.47,0
300,-300,-2216.32,0
300,-300,-2694.36,0
300,-300,-3139.76,0
300,-300,-3545.06,0
300,-300,-3897.87,0
300,-300,-4194.8,0
300,-300,-4429.42,0
300,-300,-4603.43,0
300,-300,-4718.35,0
300,-300,-4775.09,0
300,-300,-4776.73,0
300,-300,-4724.33,0
300,-300,-4619,0
300,-300,-4455.01,0
300,-300,-4242.4,0
300,-300,-3985.2,0
300,-300,-3687.74,0
300,-300,-3361.02,0
300,-300,-3020.58,0
300,-300,-2684.82,0
300,-300,-2374.28,0
300,-300,-2109.11,0
300,-300,-1907.04,0
300,-300,-1782.74,0
300,-300,-1741.2,0
300,-300,-1776.09,0
300,-300,-1878.69,0
300,-300,-2026.99,0
300,-300,-2193.62,0
300,-300,-2347.16,0
300,-300,-2456.75,0
300,-300,-2493.65,0
300,-300,-2436.23,0
300,-300,-2272.97,0
300,-300,-2002.55,0
300,-300,-1633.02,0
300,-300,-1184.96,0
300,-300,-683.19,0
300,-300,-158.78,0
300,-300,356.85,0
300,-300,832.96,0
300,-300,1242.71,0
300,-300,1562.14,0
300,-300,1779.58,0
300,-300,1890.32,0
300,-300,1881.36,0
300,-300,1765.78,0
300,-300,1552.17,0
300,-300,1251.26,0
300,-300,876.8,0
300,-300,443.22,0
300,-300,-33.35,0
300,-300,-536.68,0
300,-300,-1047.6,0
300,-300,-1551.58,0
300,-300,-2029.69,0
300,-300,-2471.46,0
300,-300,-2866.73,0
300,-300,-3208.85,0
300,-300,-3492.73,0
300,-300,-3716.93,0
300,-300,-3880.34,0
300,-300,-3968.7,0
300,-300,-3997.59,0
300,-300,-3965.51,0
300,-300,-3872.44,0
300,-300,-3720.92,0
300,-300,-3514.68,0
300,-300,-3261.23,0
300,-300,-2969.35,0
300,-300,-2652.09,0
300,-300,-2324.48,0
300,-300,-2007.35,0
300,-300,-1719.6,0
300,-300,-1476.28,0
300,-300,-1296.4,0
300,-300,-1190.47,0
300,-300,-1161.7,0
300,-300,-1206.6,0
300,-300,-1312.19,0
300,-300,-1459.23,0
300,-300,-1623.53,0
300,-300,-1779.71,0
300,-300,-1902.12,0
300,-300,-1964.86,0
300,-300,-1955.2,0
300,-300,-1864.12,0
300,-300,-1691.69,0
300,-300,-1446.25,0
300,-300,-1141.96,0
300,-300,-799.86,0
300,-300,-442.14,0
300,-300,-90.56,0
300,-300,233.04,0
300,-300,515.39,0
300,-300,739.39,0
300,-300,895.7,0
300,-300,978.88,0
300,-300,985.98,0
300,-300,917.41,0
300,-300,774.57,0
300,-300,559.79,0
300,-300,278.67,0
300,-300,-61.3,0
300,-300,-459.29,0
300,-300,-895.56,0
300,-300,-1358.31,0
300,-300,-1832.43,0
300,-300,-2302.17,0
300,-300,-2751.21,0
300,-300,-3165.38,0
300,-300,-3536.17,0
300,-300,-3850.27,0
300,-300,-4102.82,0
300,-300,-4289,0
300,-300,-4409.24,0
300,-300,-4466.27,0
300,-300,-4460.76,0
300,-300,-4394.7,0
300,-300,-4268.83,0
300,-300,-4085.5,0
300,-300,-3845.4,0
300,-300,-3558.75,0
300,-300,-3234.15,0
300,-300,-2884.59,0
300,-300,-2527.5,0
300,-300,-2183.4,0
300,-300,-1873.55,0
300,-300,-1619.08,0
300,-300,-1436.04,0
300,-300,-1336.09,0
300,-300,-1325.41,0
300,-300,-1395.31,0
300,-300,-1528.29,0
300,-300,-1703.71,0
300,-300,-1892.38,0
300,-300,-2063.97,0
300,-300,-2188.73,0
300,-300,-2242.56,0
300,-300,-2208,0
300,-300,-2076.58,0
300,-300,-1850.24,0
300,-300,-1541.12,0
300,-300,-1167.65,0
300,-300,-757.04,0
300,-300,-335.64,0
300,-300,70.99,0
300,-300,438.75,0
300,-300,747.4,0
300,-300,983.17,0
300,-300,1130.42,0
300,-300,1189.32,0
300,-300,1161.41,0
300,-300,1035.85,0
300,-300,834.84,0
300,-300,566.35,0
300,-300,240.07,0
300,-300,-131.54,0
300,-300,-535.41,0
300,-300,-956.06,0
300,-300,-1377.14,0
300,-300,-1785.31,0
300,-300,-2169.51,0
300,-300,-2517.83,0
300,-300,-2825.83,0
300,-300,-3091.97,0
300,-300,-3317.98,0
300,-300,-3507.19,0
300,-300,-3664.29,0
300,-300,-3792.9,0
300,-300,-3882.26,0
300,-300,-3944.49,0
300,-300,-3972.02,0
300,-300,-3959.06,0
300,-300,-3901.25,0
300,-300,-3794.61,0
300,-300,-3639.42,0
300,-300,-3439.72,0
300,-300,-3204.75,0
300,-300,-2948.3,0
300,-300,-2688.98,0
300,-300,-2445.73,0
300,-300,-2236.44,0
300,-300,-2076.86,0
300,-300,-1974.92,0
300,-300,-1930.84,0
300,-300,-1937.56,0
300,-300,-1979.11,0
300,-300,-2035.1,0
300,-300,-2081.83,0
300,-300,-2096.89,0
300,-300,-2059.72,0
300,-300,-1955.45,0
300,-300,-1779.81,0
300,-300,-1535.48,0
300,-300,-1232.76,0
300,-300,-888.95,0
300,-300,-524.57,0
300,-300,-162.13,0
300,-300,175.29,0
300,-300,470.43,0
300,-300,707.35,0
300,-300,879.63,0
300,-300,977.82,0
300,-300,999.64,0
300,-300,947.91,0
300,-300,825.26,0
300,-300,636.96,0
300,-300,387.51,0
300,-300,78.42,0
300,-300,-280.29,0
300,-300,-680.96,0
300,-300,-1115.75,0
300,-300,-1567.72,0
300,-300,-2022.99,0
300,-300,-2464.81,0
300,-300,-2877.2,0
300,-300,-3245.17,0
300,-300,-3558.45,0
300,-300,-3813.16,0
300,-300,-4006.7,0
300,-300,-4144.17,0
300,-300,-4230.52,0
300,-300,-4276.92,0
300,-300,-4290.65,0
300,-300,-4275.57,0
300,-300,-4234.03,0
300,-300,-4163.2,0
300,-300,-4059.78,0
300,-300,-3911.65,0
300,-300,-3724.53,0
300,-300,-3496.05,0
300,-300,-3233.43,0
300,-300,-2948.72,0
300,-300,-2660.96,0
300,-300,-2392.34,0
300,-300,-2167.12,0
300,-300,-2007.81,0
300,-300,-1933.66,0
300,-300,-1951.97,0
300,-300,-2061.86,0
300,-300,-2243.67,0
300,-300,-2477.49,0
300,-300,-2728.97,0
300,-300,-2960.88,0
300,-300,-3135.15,0
300,-300,-3220.17,0
300,-300,-3191.23,0
300,-300,-3037.34,0
300,-300,-2759.21,0
300,-300,-2371.43,0
300,-300,-1899.27,0
300,-300,-1373.93,0
300,-300,-829.73,0
300,-300,-301.26,0
300,-300,181.5,0
300,-300,595.05,0
300,-300,925.16,0
300,-300,1161.88,0
300,-300,1307.81,0
300,-300,1370.57,0
300,-300,1346.31,0
300,-300,1256.96,0
300,-300,1109.18,0
300,-300,908.73,0
300,-300,661.06,0
300,-300,370.2,0
300,-300,41.9,0
300,-300,-318.47,0
300,-300,-701.68,0
300,-300,-1098.97,0
300,-300,-1498.96,0
300,-300,-1890.53,0
300,-300,-2260.84,0
300,-300,-2599.68,0
300,-300,-2899.46,0
300,-300,-3157.35,0
300,-300,-3373.05,0
300,-300,-3552.93,0
300,-300,-3696.06,0
300,-300,-3804.92,0
300,-300,-3877.89,0
300,-300,-3912.51,0
300,-300,-3903.87,0
300,-300,-3847.08,0
300,-300,-3728.89,0
300,-300,-3544.32,0
300,-300,-3290.41,0
300,-300,-2974.98,0
300,-300,-2610.01,0
300,-300,-2211.92,0
300,-300,-1807.44,0
300,-300,-1426.61,0
300,-300,-1099.11,0
300,-300,-852.76,0
300,-300,-706.83,0
300,-300,-671.88,0
300,-300,-743.27,0
300,-300,-906.53,0
300,-300,-1135.24,0
300,-300,-1390.95,0
300,-300,-1636.95,0
300,-300,-1833.65,0
300,-300,-1946.01,0
300,-300,-1949.48,0
300,-300,-1830.81,0
300,-300,-1590.29,0
300,-300,-1240.42,0
300,-300,-806.21,0
300,-300,-319.27,0
300,-300,187.89,0
300,-300,678.91,0
300,-300,1122.43,0
300,-300,1494.87,0
300,-300,1778.68,0
300,-300,1965.42,0
300,-300,2052.1,0
300,-300,2044.63,0
300,-300,1946.83,0
300,-300,1772.89,0
300,-300,1522.99,0
300,-300,1214.97,0
300,-300,854.32,0
300,-300,448.06,0
300,-300,4.24,0
300,-300,-467.51,0
300,-300,-957.09,0
300,-300,-1452.31,0
300,-300,-1940.89,0
300,-300,-2408.54,0
300,-300,-2844.82,0
300,-300,-3241.33,0
300,-300,-3592.92,0
300,-300,-3897.02,0
300,-300,-4155.1,0
300,-300,-4369.39,0
300,-300,-4544.23,0
300,-300,-4681.13,0
300,-300,-4764.77,0
300,-300,-4802.84,0
300,-300,-4785.27,0
300,-300,-4703.67,0
300,-300,-4551.91,0
300,-300,-4325.89,0
300,-300,-4028.26,0
300,-300,-3667.69,0
300,-300,-3261.31,0
300,-300,-2837.63,0
300,-300,-2422.61,0
300,-300,-2045,0
300,-300,-1737.09,0
300,-300,-1521.43,0
300,-300,-1412.36,0
300,-300,-1412.22,0
300,-300,-1511.07,0
300,-300,-1686.06,0
300,-300,-1906.28,0
300,-300,-2132.69,0
300,-300,-2325.84,0
300,-300,-2449.34,0
300,-300,-2476.23,0
300,-300,-2388.44,0
300,-300,-2182.34,0
300,-300,-1865.79,0
300,-300,-1460.36,0
300,-300,-994.38,0
300,-300,-501.55,0
300,-300,-18.26,0
300,-300,426.97,0
300,-300,810.15,0
300,-300,1108.42,0
300,-300,1309.98,0
300,-300,1410.55,0
300,-300,1412.71,0
300,-300,1323.22,0
300,-300,1154.53,0
300,-300,911.15,0
300,-300,600.33,0
300,-300,231.68,0
300,-300,-182.95,0
300,-300,-633.92,0
300,-300,-1111.69,0
300,-300,-1604.57,0
300,-300,-2097.13,0
300,-300,-2574.9,0
300,-300,-3022.77,0
300,-300,-3428.27,0
300,-300,-3781.06,0
300,-300,-4075.98,0
300,-300,-4309.83,0
300,-300,-4483.87,0
300,-300,-4599.56,0
300,-300,-4660.79,0
300,-300,-4671.02,0
300,-300,-4632.56,0
300,-300,-4545.8,0
300,-300,-4402.08,0
300,-300,-4210.51,0
300,-300,-3969.56,0
300,-300,-3681.95,0
300,-300,-3356.08,0
300,-300,-3004.02,0
300,-300,-2644.14,0
300,-300,-2296.36,0
300,-300,-1983.15,0
300,-300,-1724.96,0
300,-300,-1542.86,0
300,-300,-1443.61,0
300,-300,-1431.12,0
300,-300,-1494.07,0
300,-300,-1617.06,0
300,-300,-1773.71,0
300,-300,-1933.02,0
300,-300,-2062.33,0
300,-300,-2131.34,0
300,-300,-2115.43,0
300,-300,-1999.95,0
300,-300,-1779.14,0
300,-300,-1459.43,0
300,-300,-1056.52,0
300,-300,-594.46,0
300,-300,-101.09,0
300,-300,392.65,0
300,-300,857.97,0
300,-300,1267.97,0
300,-300,1602.08,0
300,-300,1840.46,0
300,-300,1977.87,0
300,-300,2013.13,0
300,-300,1931.75,0
300,-300,1750.44,0
300,-300,1475.28,0
300,-300,1115.33,0
300,-300,682.11,0
300,-300,189.41,0
300,-300,-346.44,0
300,-300,-908.63,0
300,-300,-1480.09,0
300,-300,-2037.04,0
300,-300,-2566.19,0
300,-300,-3052.91,0
300,-300,-3485.43,0
300,-300,-3857.16,0
300,-300,-4166.12,0
300,-300,-4414.49,0
300,-300,-4607.31,0
300,-300,-4733.37,0
300,-300,-4805.88,0
300,-300,-4823.64,0
300,-300,-4785.69,0
300,-300,-4689.2,0
300,-300,-4531.39,0
300,-300,-4312.74,0
300,-300,-4035.98,0
300,-300,-3711.23,0
300,-300,-3352.4,0
300,-300,-2982.65,0
300,-300,-2623.38,0
300,-300,-2298.12,0
300,-300,-2033.93,0
300,-300,-1849.17,0
300,-300,-1753.87,0
300,-300,-1748.02,0
300,-300,-1821.62,0
300,-300,-1954.38,0
300,-300,-2118.1,0
300,-300,-2282.95,0
300,-300,-2411.57,0
300,-300,-2471.72,0
300,-300,-2440.95,0
300,-300,-2305.57,0
300,-300,-2061.91,0
300,-300,-1716.82,0
300,-300,-1286.5,0
300,-300,-793.56,0
300,-300,-264.7,0
300,-300,269.63,0
300,-300,783.35,0
300,-300,1252.6,0
300,-300,1658.86,0
300,-300,1987.67,0
300,-300,2229.84,0
300,-300,2378.14,0
300,-300,2428.03,0
300,-300,2377.73,0
300,-300,2227.2,0
300,-300,1978.37,0
300,-300,1628.97,0
300,-300,1195.05,0
300,-300,686.71,0
300,-300,118.63,0
300,-300,-489.38,0
300,-300,-1114.4,0
300,-300,-1731.46,0
300,-300,-2317.91,0
300,-300,-2853.42,0
300,-300,-3325.17,0
300,-300,-3722.57,0
300,-300,-4047.35,0
300,-300,-4304.61,0
300,-300,-4503.8,0
300,-300,-4655.27,0
300,-300,-4768.99,0
300,-300,-4850.35,0
300,-300,-4899.13,0
300,-300,-4889.14,0
300,-300,-4828.72,0
300,-300,-4700.15,0
300,-300,-4494.79,0
300,-300,-4208.91,0
300,-300,-3848.15,0
300,-300,-3427.36,0
300,-300,-2971.45,0
300,-300,-2512.44,0
300,-300,-2087.63,0
300,-300,-1734.44,0
300,-300,-1481.67,0
300,-300,-1346.14,0
300,-300,-1338.07,0
300,-300,-1447.38,0
300,-300,-1649.09,0
300,-300,-1906.94,0
300,-300,-2175.84,0
300,-300,-2409.05,0
300,-300,-2564.38,0
300,-300,-2611.09,0
300,-300,-2526.76,0
300,-300,-2306.26,0
300,-300,-1959.46,0
300,-300,-1509.06,0
300,-300,-987.03,0
300,-300,-429.39,0
300,-300,126.53,0
300,-300,649.01,0
300,-300,1111.81,0
300,-300,1496.46,0
300,-300,1799.46,0
300,-300,2003.82,0
300,-300,2122.3,0
300,-300,2160.19,0
300,-300,2120.82,0
300,-300,2007.09,0
300,-300,1819.11,0
300,-300,1556.32,0
300,-300,1218.85,0
300,-300,808.44,0
300,-300,329.9,0
300,-300,-202.63,0
300,-300,-777.09,0
300,-300,-1372.35,0
300,-300,-1965.56,0
300,-300,-2533,0
300,-300,-3053.34,0
300,-300,-3509.94,0
300,-300,-3893.53,0
300,-300,-4201.54,0
300,-300,-4438.83,0
300,-300,-4611.17,0
300,-300,-4734.95,0
300,-300,-4822.26,0
300,-300,-4883.33,0
300,-300,-4923.4,0
300,-300,-4942.3,0
300,-300,-4933.39,0
300,-300,-4866.89,0
300,-300,-4744.42,0
300,-300,-4549.19,0
300,-300,-4272,0
300,-300,-3915.37,0
300,-300,-3490.67,0
300,-300,-3020.86,0
300,-300,-2536.3,0
300,-300,-2074.12,0
300,-300,-1670.71,0
300,-300,-1363.07,0
300,-300,-1172.93,0
300,-300,-1114.07,0
300,-300,-1180.56,0
300,-300,-1356.09,0
300,-300,-1607.57,0
300,-300,-1893.36,0
300,-300,-2166.81,0
300,-300,-2382.65,0
300,-300,-2502.29,0
300,-300,-2501.36,0
300,-300,-2365.21,0
300,-300,-2097.51,0
300,-300,-1714.56,0
300,-300,-1244.34,0
300,-300,-721.07,0
300,-300,-181.83,0
300,-300,340.25,0
300,-300,816.37,0
300,-300,1226.79,0
300,-300,1558.83,0
300,-300,1813.45,0
300,-300,1973.37,0
300,-300,2062.68,0
300,-300,2086.95,0
300,-300,2050.31,0
300,-300,1953.12,0
300,-300,1794.52,0
300,-300,1571.55,0
300,-300,1283.04,0
300,-300,927.69,0
300,-300,507.77,0
300,-300,33.37,0
300,-300,-485.32,0
300,-300,-1031.24,0
300,-300,-1583.09,0
300,-300,-2119.73,0
300,-300,-2621.33,0
300,-300,-3071.97,0
300,-300,-3461.54,0
300,-300,-3787.82,0
300,-300,-4050.58,0
300,-300,-4255.53,0
300,-300,-4414.46,0
300,-300,-4538.4,0
300,-300,-4634.86,0
300,-300,-4710.02,0
300,-300,-4764.35,0
300,-300,-4794.12,0
300,-300,-4788.46,0
300,-300,-4714.58,0
300,-300,-4576.36,0
300,-300,-4358.29,0
300,-300,-4057.91,0
300,-300,-3682.45,0
300,-300,-3247.76,0
300,-300,-2779.97,0
300,-300,-2312.09,0
300,-300,-1881.25,0
300,-300,-1523.52,0
300,-300,-1271.87,0
300,-300,-1142.5,0
300,-300,-1142.49,0
300,-300,-1263.19,0
300,-300,-1483.1,0
300,-300,-1766.7,0
300,-300,-2071.58,0
300,-300,-2351.68,0
300,-300,-2564.23,0
300,-300,-2673.29,0
300,-300,-2657.14,0
300,-300,-2504.41,0
300,-300,-2219.58,0
300,-300,-1820.34,0
300,-300,-1334.93,0
300,-300,-797.44,0
300,-300,-244.67,0
300,-300,290.05,0
300,-300,778.48,0
300,-300,1199.56,0
300,-300,1544.08,0
300,-300,1789.92,0
300,-300,1954.32,0
300,-300,2040.73,0
300,-300,2054.2,0
300,-300,1999.61,0
300,-300,1879.65,0
300,-300,1695.16,0
300,-300,1445.71,0
300,-300,1130.26,0
300,-300,750.61,0
300,-300,313.6,0
300,-300,-175.78,0
300,-300,-704.37,0
300,-300,-1256.92,0
300,-300,-1813.24,0
300,-300,-2353.69,0
300,-300,-2858.97,0
300,-300,-3313.78,0
300,-300,-3711.18,0
300,-300,-4045.49,0
300,-300,-4317.46,0
300,-300,-4535.25,0
300,-300,-4707.41,0
300,-300,-4844.04,0
300,-300,-4950.6,0
300,-300,-5029.3,0
300,-300,-5075.24,0
300,-300,-5079.02,0
300,-300,-5012.64,0
300,-300,-4878.49,0
300,-300,-4660.36,0
300,-300,-4354.86,0
300,-300,-3967.81,0
300,-300,-3517.03,0
300,-300,-3030.15,0
300,-300,-2543.84,0
300,-300,-2097.06,0
300,-300,-1728.56,0
300,-300,-1470.42,0
300,-300,-1345.18,0
300,-300,-1358.27,0
300,-300,-1498.22,0
300,-300,-1738.3,0
300,-300,-2039.07,0
300,-300,-2350.76,0
300,-300,-2622.67,0
300,-300,-2807.24,0
300,-300,-2868.38,0
300,-300,-2785.16,0
300,-300,-2551.65,0
300,-300,-2176.95,0
300,-300,-1688.93,0
300,-300,-1122.45,0
300,-300,-518.94,0
300,-300,81.25,0
300,-300,640.14,0
300,-300,1128.83,0
300,-300,1524.59,0
300,-300,1819.89,0
300,-300,2016.6,0
300,-300,2099.46,0
300,-300,2092.99,0
300,-300,2005.42,0
300,-300,1842.62,0
300,-300,1609.62,0
300,-300,1309.43,0
300,-300,945.72,0
300,-300,519.18,0
300,-300,42.04,0
300,-300,-476.81,0
300,-300,-1018.5,0
300,-300,-1569.75,0
300,-300,-2110.78,0
300,-300,-2623.02,0
300,-300,-3088.56,0
300,-300,-3496.14,0
300,-300,-3839.6,0
300,-300,-4123.55,0
300,-300,-4351.81,0
300,-300,-4535.92,0
300,-300,-4685.63,0
300,-300,-4811.01,0
300,-300,-4916.54,0
300,-300,-4999.57,0
300,-300,-5050.87,0
300,-300,-5057.26,0
300,-300,-5002.33,0
300,-300,-4859.84,0
300,-300,-4632.72,0
300,-300,-4315.01,0
300,-300,-3914.32,0
300,-300,-3451.69,0
300,-300,-2958.77,0
300,-300,-2473.87,0
300,-300,-2037.45,0
300,-300,-1687.14,0
300,-300,-1452.39,0
300,-300,-1351.98,0
300,-300,-1385.47,0
300,-300,-1535.87,0
300,-300,-1772.88,0
300,-300,-2053.63,0
300,-300,-2326.36,0
300,-300,-2541.93,0
300,-300,-2655.23,0
300,-300,-2634.92,0
300,-300,-2463.33,0
300,-300,-2141.52,0
300,-300,-1686.74,0
300,-300,-1125.78,0
300,-300,-499.92,0
300,-300,148.04,0
300,-300,776.63,0
300,-300,1348.78,0
300,-300,1837.03,0
300,-300,2223.53,0
300,-300,2495.9,0
300,-300,2656.31,0
300,-300,2712.85,0
300,-300,2659.85,0
300,-300,2522.55,0
300,-300,2306.79,0
300,-300,2018.38,0
300,-300,1660.67,0
300,-300,1239.56,0
300,-300,761.24,0
300,-300,232.65,0
300,-300,-330.16,0
300,-300,-912.51,0
300,-300,-1496.25,0
300,-300,-2062.15,0
300,-300,-2591.81,0
300,-300,-3070.01,0
300,-300,-3485.83,0
300,-300,-3834.31,0
300,-300,-4117.35,0
300,-300,-4346.63,0
300,-300,-4527.71,0
300,-300,-4673.21,0
300,-300,-4790.5,0
300,-300,-4885.35,0
300,-300,-4956.67,0
300,-300,-4996.08,0
300,-300,-4991.48,0
300,-300,-4928.15,0
300,-300,-4792.92,0
300,-300,-4567.77,0
300,-300,-4262.21,0
300,-300,-3878.6,0
300,-300,-3439.25,0
300,-300,-2973.08,0
300,-300,-2516.39,0
300,-300,-2106.98,0
300,-300,-1781.18,0
300,-300,-1566.77,0
300,-300,-1480.45,0
300,-300,-1522.01,0
300,-300,-1677.6,0
300,-300,-1913.13,0
300,-300,-2190.24,0
300,-300,-2460.24,0
300,-300,-2673.62,0
300,-300,-2787.51,0
300,-300,-2773.58,0
300,-300,-2615.86,0
300,-300,-2306.19,0
300,-300,-1863.49,0
300,-300,-1318.4,0
300,-300,-706.32,0
300,-300,-72.51,0
300,-300,542.83,0
300,-300,1104.86,0
300,-300,1588.59,0
300,-300,1977.36,0
300,-300,2263.67,0
300,-300,2438.67,0
300,-300,2516.83,0
300,-300,2509.58,0
300,-300,2415.26,0
300,-300,2253.6,0
300,-300,2027.8,0
300,-300,1739.07,0
300,-300,1389.47,0
300,-300,981.93,0
300,-300,521.02,0
300,-300,11.33,0
300,-300,-531.01,0
300,-300,-1092.15,0
300,-300,-1652.35,0
300,-300,-2195.17,0
300,-300,-2704.68,0
300,-300,-3168.05,0
300,-300,-3575.54,0
300,-300,-3924.99,0
300,-300,-4217.37,0
300,-300,-4462.34,0
300,-300,-4665.8,0
300,-300,-4837.52,0
300,-300,-4982.68,0
300,-300,-5102.76,0
300,-300,-5192.56,0
300,-300,-5241.47,0
300,-300,-5234.66,0
300,-300,-5157.53,0
300,-300,-4996.59,0
300,-300,-4731.85,0
300,-300,-4378,0
300,-300,-3938.14,0
300,-300,-3437.12,0
300,-300,-2905.87,0
300,-300,-2382.09,0
300,-300,-1904.83,0
300,-300,-1509.77,0
300,-300,-1226.29,0
300,-300,-1070.04,0
300,-300,-1047.25,0
300,-300,-1140.73,0
300,-300,-1320.67,0
300,-300,-1550.57,0
300,-300,-1784.29,0
300,-300,-1974.72,0
300,-300,-2081.28,0
300,-300,-2072.96,0
300,-300,-1932.59,0
300,-300,-1659,0
300,-300,-1263.5,0
300,-300,-773.24,0
300,-300,-217.83,0
300,-300,359.54,0
300,-300,920.78,0
300,-300,1432.89,0
300,-300,1870.7,0
300,-300,2217.37,0
300,-300,2465.24,0
300,-300,2614.96,0
300,-300,2668.96,0
300,-300,2641.97,0
300,-300,2533.11,0
300,-300,2359.27,0
300,-300,2123.03,0
300,-300,1825.55,0
300,-300,1467.26,0
300,-300,1049.8,0
300,-300,576.71,0
300,-300,55.43,0
300,-300,-504,0
300,-300,-1086.03,0
300,-300,-1673.83,0
300,-300,-2248.8,0
300,-300,-2792.12,0
300,-300,-3289.74,0
300,-300,-3729.58,0
300,-300,-4106.27,0
300,-300,-4419.91,0
300,-300,-4672.58,0
300,-300,-4871.73,0
300,-300,-5034.19,0
300,-300,-5164.83,0
300,-300,-5265.49,0
300,-300,-5333.34,0
300,-300,-5359.76,0
300,-300,-5334.73,0
300,-300,-5245.53,0
300,-300,-5080.54,0
300,-300,-4820.45,0
300,-300,-4476.62,0
300,-300,-4044.91,0
300,-300,-3552.18,0
300,-300,-3028.61,0
300,-300,-2510.38,0
300,-300,-2036.98,0
300,-300,-1645.23,0
300,-300,-1365.33,0
300,-300,-1216.83,0
300,-300,-1206.83,0
300,-300,-1321.77,0
300,-300,-1531.48,0
300,-300,-1800.94,0
300,-300,-2082.49,0
300,-300,-2326.39,0
300,-300,-2487.21,0
300,-300,-2528.69,0
300,-300,-2428.82,0
300,-300,-2181.33,0
300,-300,-1796.21,0
300,-300,-1297.97,0
300,-300,-718.2,0
300,-300,-99.57,0
300,-300,516.24,0
300,-300,1090.4,0
300,-300,1591.57,0
300,-300,1996.95,0
300,-300,2293.12,0
300,-300,2476.16,0
300,-300,2549.15,0
300,-300,2525.84,0
300,-300,2403.91,0
300,-300,2206.33,0
300,-300,1939.59,0
300,-300,1609.34,0
300,-300,1221.41,0
300,-300,781.48,0
300,-300,296.83,0
300,-300,-223.94,0
300,-300,-768.83,0
300,-300,-1324.06,0
300,-300,-1869.39,0
300,-300,-2392.58,0
300,-300,-2878.13,0
300,-300,-3314.02,0
300,-300,-3692.32,0
300,-300,-4010.98,0
300,-300,-4272.28,0
300,-300,-4485.81,0
300,-300,-4658.02,0
300,-300,-4796.9,0
300,-300,-4907.07,0
300,-300,-4988.23,0
300,-300,-5035.55,0
300,-300,-5040.71,0
300,-300,-4992.66,0
300,-300,-4880.65,0
300,-300,-4697.01,0
300,-300,-4438.86,0
300,-300,-4115.72,0
300,-300,-3743.67,0
300,-300,-3343.75,0
300,-300,-2949.96,0
300,-300,-2595.56,0
300,-300,-2311.58,0
300,-300,-2122.67,0
300,-300,-2042.96,0
300,-300,-2073.18,0
300,-300,-2205.36,0
300,-300,-2408.58,0
300,-300,-2648.01,0
300,-300,-2880.15,0
300,-300,-3062.34,0
300,-300,-3156.34,0
300,-300,-3133.55,0
300,-300,-2978.09,0
300,-300,-2687.97,0
300,-300,-2275.59,0
300,-300,-1764.2,0
300,-300,-1188.41,0
300,-300,-585.03,0
300,-300,10.53,0
300,-300,564,0
300,-300,1048.49,0
300,-300,1445.03,0
300,-300,1742.26,0
300,-300,1935.09,0
300,-300,2025.31,0
300,-300,2014.47,0
300,-300,1914.59,0
300,-300,1721.63,0
300,-300,1452.73,0
300,-300,1112.32,0
300,-300,707.1,0
300,-300,246.3,0
300,-300,-257.55,0
300,-300,-788.59,0
300,-300,-1329.99,0
300,-300,-1861.61,0
300,-300,-2365.1,0
300,-300,-2822.45,0
300,-300,-3224.71,0
300,-300,-3566.22,0
300,-300,-3846.58,0
300,-300,-4071.3,0
300,-300,-4248.31,0
300,-300,-4388.27,0
300,-300,-4499.69,0
300,-300,-4585.36,0
300,-300,-4643.34,0
300,-300,-4666.82,0
300,-300,-4645.94,0
300,-300,-4568.88,0
300,-300,-4423.83,0
300,-300,-4204.63,0
300,-300,-3910.75,0
300,-300,-3551.53,0
300,-300,-3147,0
300,-300,-2723.06,0
300,-300,-2313.25,0
300,-300,-1950.04,0
300,-300,-1665.66,0
300,-300,-1482.65,0
300,-300,-1412.29,0
300,-300,-1452.18,0
300,-300,-1585.36,0
300,-300,-1783.71,0
300,-300,-2011.18,0
300,-300,-2223.78,0
300,-300,-2379.5,0
300,-300,-2442.66,0
300,-300,-2387.74,0
300,-300,-2203.25,0
300,-300,-1890.02,0
300,-300,-1463.44,0
300,-300,-948.67,0
300,-300,-378.78,0
300,-300,210.25,0
300,-300,783.06,0
300,-300,1312.6,0
300,-300,1772.41,0
300,-300,2146.97,0
300,-300,2426.08,0
300,-300,2606.55,0
300,-300,2691.1,0
300,-300,2683.66,0
300,-300,2585.42,0
300,-300,2403.22,0
300,-300,2139.64,0
300,-300,1797.08,0
300,-300,1384.01,0
300,-300,908.69,0
300,-300,382.98,0
300,-300,-177.87,0
300,-300,-756.16,0
300,-300,-1331.94,0
300,-300,-1887.14,0
300,-300,-2402.25,0
300,-300,-2867.3,0
300,-300,-3270.35,0
300,-300,-3615.6,0
300,-300,-3906.82,0
300,-300,-4152.69,0
300,-300,-4362.23,0
300,-300,-4545.52,0
300,-300,-4709.64,0
300,-300,-4849.85,0
300,-300,-4962.26,0
300,-300,-5035.75,0
300,-300,-5057.12,0
300,-300,-5010.79,0
300,-300,-4885.66,0
300,-300,-4677.41,0
300,-300,-4389.66,0
300,-300,-4036.43,0
300,-300,-3640.47,0
300,-300,-3235.01,0
300,-300,-2851.99,0
300,-300,-2527.24,0
300,-300,-2285.1,0
300,-300,-2146.84,0
300,-300,-2117.47,0
300,-300,-2188.24,0
300,-300,-2336.35,0
300,-300,-2528.87,0
300,-300,-2724.87,0
300,-300,-2885.68,0
300,-300,-2970.11,0
300,-300,-2947.41,0
300,-300,-2799.75,0
300,-300,-2523.4,0
300,-300,-2126.35,0
300,-300,-1629.12,0
300,-300,-1060.54,0
300,-300,-454.95,0
300,-300,154.59,0
300,-300,733.32,0
300,-300,1255.84,0
300,-300,1702.25,0
300,-300,2058.28,0
300,-300,2317.14,0
300,-300,2478.17,0
300,-300,2543.74,0
300,-300,2518.22,0
300,-300,2404.59,0
300,-300,2201.65,0
300,-300,1916.66,0
300,-300,1552.87,0
300,-300,1118.49,0
300,-300,623.15,0
300,-300,80.75,0
300,-300,-490.61,0
300,-300,-1070.85,0
300,-300,-1638.2,0
300,-300,-2173.3,0
300,-300,-2660.02,0
300,-300,-3087.35,0
300,-300,-3450.53,0
300,-300,-3748.59,0
300,-300,-3989.59,0
300,-300,-4184.13,0
300,-300,-4343.12,0
300,-300,-4478.34,0
300,-300,-4597.03,0
300,-300,-4703.97,0
300,-300,-4793.28,0
300,-300,-4855.01,0
300,-300,-4875.09,0
300,-300,-4838.87,0
300,-300,-4732.53,0
300,-300,-4548.35,0
300,-300,-4284.65,0
300,-300,-3949.22,0
300,-300,-3559.18,0
300,-300,-3139.88,0
300,-300,-2725.87,0
300,-300,-2349.09,0
300,-300,-2037.01,0
300,-300,-1817.21,0
300,-300,-1702.82,0
300,-300,-1695.45,0
300,-300,-1782.46,0
300,-300,-1940.36,0
300,-300,-2135.46,0
300,-300,-2330.09,0
300,-300,-2486.89,0
300,-300,-2570.1,0
300,-300,-2551.48,0
300,-300,-2417.69,0
300,-300,-2164.18,0
300,-300,-1800.12,0
300,-300,-1344.28,0
300,-300,-824.37,0
300,-300,-271.46,0
300,-300,282.29,0
300,-300,807.29,0
300,-300,1280.79,0
300,-300,1679.84,0
300,-300,1993.71,0
300,-300,2218.67,0
300,-300,2354.32,0
300,-300,2403.78,0
300,-300,2370.2,0
300,-300,2257.88,0
300,-300,2064.37,0
300,-300,1798.31,0
300,-300,1460.44,0
300,-300,1059.51,0
300,-300,600.23,0
300,-300,94.46,0
300,-300,-443.87,0
300,-300,-997.59,0
300,-300,-1548.56,0
300,-300,-2077.58,0
300,-300,-2570.42,0
300,-300,-3012.72,0
300,-300,-3399.29,0
300,-300,-3725.56,0
300,-300,-3998.15,0
300,-300,-4224.19,0
300,-300,-4413.86,0
300,-300,-4576.35,0
300,-300,-4720.68,0
300,-300,-4851.32,0
300,-300,-4959.37,0
300,-300,-5037.37,0
300,-300,-5072.19,0
300,-300,-5045.95,0
300,-300,-4944.91,0
300,-300,-4758.16,0
300,-300,-4483.16,0
300,-300,-4127.35,0
300,-300,-3709.07,0
300,-300,-3254.72,0
300,-300,-2803.01,0
300,-300,-2388.56,0
300,-300,-2042.26,0
300,-300,-1795.6,0
300,-300,-1665.15,0
300,-300,-1652.8,0
300,-300,-1746.55,0
300,-300,-1919.56,0
300,-300,-2136.04,0
300,-300,-2354.82,0
300,-300,-2530.59,0
300,-300,-2625.26,0
300,-300,-2609.69,0
300,-300,-2467.39,0
300,-300,-2195.76,0
300,-300,-1805.55,0
300,-300,-1319.25,0
300,-300,-766.97,0
300,-300,-183.95,0
300,-300,394.32,0
300,-300,937.77,0
300,-300,1422.6,0
300,-300,1829.51,0
300,-300,2147.24,0
300,-300,2371.48,0
300,-300,2504.02,0
300,-300,2547.87,0
300,-300,2507.01,0
300,-300,2383.54,0
300,-300,2176.09,0
300,-300,1889.98,0
300,-300,1525.74,0
300,-300,1091.43,0
300,-300,594.91,0
300,-300,48.51,0
300,-300,-528.9,0
300,-300,-1117.03,0
300,-300,-1692.93,0
300,-300,-2236.69,0
300,-300,-2732.15,0
300,-300,-3167.18,0
300,-300,-3536.91,0
300,-300,-3840.56,0
300,-300,-4086.36,0
300,-300,-4286.19,0
300,-300,-4451.31,0
300,-300,-4593.12,0
300,-300,-4718.26,0
300,-300,-4829.75,0
300,-300,-4905.78,0
300,-300,-4944.36,0
300,-300,-4926.72,0
300,-300,-4837.53,0
300,-300,-4663.32,0
300,-300,-4399.83,0
300,-300,-4051.43,0
300,-300,-3634.85,0
300,-300,-3175.88,0
300,-300,-2710.15,0
300,-300,-2276.63,0
300,-300,-1913.98,0
300,-300,-1646.97,0
300,-300,-1502.03,0
300,-300,-1483.48,0
300,-300,-1582.53,0
300,-300,-1773.56,0
300,-300,-2020.57,0
300,-300,-2279.28,0
300,-300,-2507.48,0
300,-300,-2659.34,0
300,-300,-2704.19,0
300,-300,-2619.07,0
300,-300,-2400.44,0
300,-300,-2055.34,0
300,-300,-1605.57,0
300,-300,-1080.29,0
300,-300,-515.76,0
300,-300,53.35,0
300,-300,591.39,0
300,-300,1075.28,0
300,-300,1487.87,0
300,-300,1812.43,0
300,-300,2046.37,0
300,-300,2191.1,0
300,-300,2249.42,0
300,-300,2226.11,0
300,-300,2122.68,0
300,-300,1941.54,0
300,-300,1678.79,0
300,-300,1339.45,0
300,-300,923.33,0
300,-300,441.25,0
300,-300,-99.7,0
300,-300,-683.6,0
300,-300,-1291.89,0
300,-300,-1900.53,0
300,-300,-2488.35,0
300,-300,-3033.72,0
300,-300,-3521.64,0
300,-300,-3942.62,0
300,-300,-4291.67,0
300,-300,-4574.03,0
300,-300,-4797.85,0
300,-300,-4972.95,0
300,-300,-5111.25,0
300,-300,-5221.98,0
300,-300,-5311.9,0
300,-300,-5381.75,0
300,-300,-5409.86,0
300,-300,-5393.31,0
300,-300,-5313.48,0
300,-300,-5157.53,0
300,-300,-4917.05,0
300,-300,-4590.32,0
300,-300,-4185.95,0
300,-300,-3721.96,0
300,-300,-3226.81,0
300,-300,-2737.96,0
300,-300,-2291.35,0
300,-300,-1922.33,0
300,-300,-1654.96,0
300,-300,-1507.74,0
300,-300,-1480.98,0
300,-300,-1560.01,0
300,-300,-1717.69,0
300,-300,-1915.59,0
300,-300,-2110.66,0
300,-300,-2262.78,0
300,-300,-2329.45,0
300,-300,-2284.25,0
300,-300,-2110.23,0
300,-300,-1807.11,0
300,-300,-1388.15,0
300,-300,-877.3,0
300,-300,-307.32,0
300,-300,286.82,0
300,-300,869.65,0
300,-300,1410.14,0
300,-300,1885.47,0
300,-300,2284.41,0
300,-300,2583.94,0
300,-300,2792.78,0
300,-300,2912.93,0
300,-300,2948.93,0
300,-300,2904.29,0
300,-300,2781.15,0
300,-300,2579.9,0
300,-300,2296.75,0
300,-300,1933.13,0
300,-300,1491.26,0
300,-300,977.53,0
300,-300,402.15,0
300,-300,-220.49,0
300,-300,-869.38,0
300,-300,-1521.64,0
300,-300,-2152.61,0
300,-300,-2740.86,0
300,-300,-3267.62,0
300,-300,-3723.81,0
300,-300,-4100.7,0
300,-300,-4405.23,0
300,-300,-4644.07,0
300,-300,-4829.54,0
300,-300,-4973.09,0
300,-300,-5086.62,0
300,-300,-5177.04,0
300,-300,-5243.65,0
300,-300,-5278.91,0
300,-300,-5270.83,0
300,-300,-5201.6,0
300,-300,-5060.6,0
300,-300,-4836.93,0
300,-300,-4528.79,0
300,-300,-4142.85,0
300,-300,-3697.76,0
300,-300,-3220.41,0
300,-300,-2748.24,0
300,-300,-2315.98,0
300,-300,-1961.69,0
300,-300,-1709.55,0
300,-300,-1579.99,0
300,-300,-1573.47,0
300,-300,-1677.38,0
300,-300,-1863.4,0
300,-300,-2093.99,0
300,-300,-2324.31,0
300,-300,-2513.03,0
300,-300,-2616.55,0
300,-300,-2605.86,0
300,-300,-2463.75,0
300,-300,-2186.97,0
300,-300,-1787.01,0
300,-300,-1287.49,0
300,-300,-719.39,0
300,-300,-118.72,0
300,-300,479.97,0
300,-300,1042.36,0
300,-300,1545.29,0
300,-300,1975.96,0
300,-300,2311.07,0
300,-300,2557.64,0
300,-300,2718.26,0
300,-300,2796.08,0
300,-300,2794.72,0
300,-300,2715.5,0
300,-300,2558.4,0
300,-300,2320.31,0
300,-300,2002.06,0
300,-300,1606.95,0
300,-300,1138.11,0
300,-300,604.7,0
300,-300,21.03,0
300,-300,-593.68,0
300,-300,-1217.22,0
300,-300,-1826.86,0
300,-300,-2401.17,0
300,-300,-2921.12,0
300,-300,-3377.07,0
300,-300,-3760.18,0
300,-300,-4077.18,0
300,-300,-4334.04,0
300,-300,-4541.24,0
300,-300,-4709.2,0
300,-300,-4846.75,0
300,-300,-4957.59,0
300,-300,-5038.99,0
300,-300,-5063.54,0
300,-300,-5037.16,0
300,-300,-4939.24,0
300,-300,-4760.06,0
300,-300,-4494.23,0
300,-300,-4145.84,0
300,-300,-3731.11,0
300,-300,-3275.77,0
300,-300,-2814.15,0
300,-300,-2385.17,0
300,-300,-2028.21,0
300,-300,-1773.69,0
300,-300,-1639.89,0
300,-300,-1634.8,0
300,-300,-1749.03,0
300,-300,-1955.73,0
300,-300,-2216.39,0
300,-300,-2484.01,0
300,-300,-2709.88,0
300,-300,-2849.54,0
300,-300,-2872.45,0
300,-300,-2756.83,0
300,-300,-2500.55,0
300,-300,-2114.32,0
300,-300,-1623.95,0
300,-300,-1063.1,0
300,-300,-471.15,0
300,-300,114.27,0
300,-300,659.04,0
300,-300,1138.22,0
300,-300,1534.3,0
300,-300,1838.49,0
300,-300,2048.92,0
300,-300,2168.03,0
300,-300,2200.98,0
300,-300,2153.97,0
300,-300,2029.76,0
300,-300,1829.18,0
300,-300,1550.67,0
300,-300,1194.66,0
300,-300,761.38,0
300,-300,260.39,0
300,-300,-297.94,0
300,-300,-895.19,0
300,-300,-1508.89,0
300,-300,-2113.99,0
300,-300,-2686.9,0
300,-300,-3206.23,0
300,-300,-3656.8,0
300,-300,-4032.65,0
300,-300,-4333.97,0
300,-300,-4564.81,0
300,-300,-4739.38,0
300,-300,-4870.14,0
300,-300,-4967.15,0
300,-300,-5035.03,0
300,-300,-5071.91,0
300,-300,-5070.68,0
300,-300,-5019.52,0
300,-300,-4892.6,0
300,-300,-4691.12,0
300,-300,-4402.32,0
300,-300,-4029.85,0
300,-300,-3587.42,0
300,-300,-3099.2,0
300,-300,-2598.5,0
300,-300,-2124.78,0
300,-300,-1716.48,0
300,-300,-1407.6,0
300,-300,-1222.67,0
300,-300,-1170.58,0
300,-300,-1242.86,0
300,-300,-1418.6,0
300,-300,-1660.87,0
300,-300,-1924.09,0
300,-300,-2159.73,0
300,-300,-2323.14,0
300,-300,-2378.83,0
300,-300,-2304.64,0
300,-300,-2092.71,0
300,-300,-1752.06,0
300,-300,-1306.06,0
300,-300,-786.07,0
300,-300,-228.77,0
300,-300,328.77,0
300,-300,853.43,0
300,-300,1318.66,0
300,-300,1707.18,0
300,-300,2009.61,0
300,-300,2220.73,0
300,-300,2348.91,0
300,-300,2379.42,0
300,-300,2334.16,0
300,-300,2213.85,0
300,-300,2017.74,0
300,-300,1744.58,0
300,-300,1393.69,0
300,-300,968.78,0
300,-300,475.49,0
300,-300,-73.22,0
300,-300,-660.92,0
300,-300,-1264.52,0
300,-300,-1863.91,0
300,-300,-2435.43,0
300,-300,-2960.48,0
300,-300,-3424.2,0
300,-300,-3820.65,0
300,-300,-4149.89,0
300,-300,-4422.66,0
300,-300,-4645.92,0
300,-300,-4833.49,0
300,-300,-4991.97,0
300,-300,-5126.61,0
300,-300,-5234.02,0
300,-300,-5306.04,0
300,-300,-5328.05,0
300,-300,-5284.91,0
300,-300,-5161.07,0
300,-300,-4941.1,0
300,-300,-4630.4,0
300,-300,-4237.16,0
300,-300,-3779.79,0
300,-300,-3290.48,0
300,-300,-2805.79,0
300,-300,-2364.93,0
300,-300,-2003.32,0
300,-300,-1749.2,0
300,-300,-1616.96,0
300,-300,-1608.95,0
300,-300,-1707.68,0
300,-300,-1886.16,0
300,-300,-2103.54,0
300,-300,-2316.29,0
300,-300,-2480.27,0
300,-300,-2557.98,0
300,-300,-2521.77,0
300,-300,-2357.94,0
300,-300,-2067.13,0
300,-300,-1663.59,0
300,-300,-1173.23,0
300,-300,-627.48,0
300,-300,-61.11,0
300,-300,492.06,0
300,-300,1003.95,0
300,-300,1452.72,0
300,-300,1824.85,0
300,-300,2112.05,0
300,-300,2312.25,0
300,-300,2425.17,0
300,-300,2458.77,0
300,-300,2403.67,0
300,-300,2273.69,0
300,-300,2067.04,0
300,-300,1782.6,0
300,-300,1422,0
300,-300,989.99,0
300,-300,496.65,0
300,-300,-45.34,0
300,-300,-615.88,0
300,-300,-1195.01,0
300,-300,-1760.41,0
300,-300,-2293.88,0
300,-300,-2779.39,0
300,-300,-3206.43,0
300,-300,-3570.99,0
300,-300,-3875.23,0
300,-300,-4126.15,0
300,-300,-4337.43,0
300,-300,-4514.86,0
300,-300,-4667.1,0
300,-300,-4796.34,0
300,-300,-4897.78,0
300,-300,-4961.94,0
300,-300,-4975.55,0
300,-300,-4924.1,0
300,-300,-4795.53,0
300,-300,-4581.86,0
300,-300,-4283.16,0
300,-300,-3913.25,0
300,-300,-3492.61,0
300,-300,-3047.45,0
300,-300,-2614.42,0
300,-300,-2228.64,0
300,-300,-1921.52,0
300,-300,-1716.46,0
300,-300,-1625.25,0
300,-300,-1646.04,0
300,-300,-1765.65,0
300,-300,-1954.69,0
300,-300,-2175.39,0
300,-300,-2386.99,0
300,-300,-2550,0
300,-300,-2630.2,0
300,-300,-2603.09,0
300,-300,-2456.92,0
300,-300,-2191.53,0
300,-300,-1821.2,0
300,-300,-1366.01,0
300,-300,-859.88,0
300,-300,-330.04,0
300,-300,188.37,0
300,-300,668.62,0
300,-300,1089.89,0
300,-300,1437.95,0
