Tran,San,Gia_tri_PPG,Truc_0
0,-300,-3236.13,0
300,-300,-3109.49,0
300,-300,-2945.79,0
300,-300,-2744.02,0
300,-300,-2510,0
300,-300,-2251.55,0
300,-300,-1980.59,0
300,-300,-1710.93,0
300,-300,-1458.29,0
300,-300,-1235.31,0
300,-300,-1053.96,0
300,-300,-921.32,0
300,-300,-841.84,0
300,-300,-815.57,0
300,-300,-837.26,0
300,-300,-899.82,0
300,-300,-993.98,0
300,-300,-1108.95,0
300,-300,-1234.57,0
300,-300,-1360.09,0
300,-300,-1476.56,0
300,-300,-1575.87,0
300,-300,-1652.83,0
300,-300,-1700.12,0
300,-300,-1711.16,0
300,-300,-1683.52,0
300,-300,-1614.78,0
300,-300,-1503.93,0
300,-300,-1353.04,0
300,-300,-1167.54,0
300,-300,-955.71,0
300,-300,-728.05,0
300,-300,-496.36,0
300,-300,-271.12,0
300,-300,-73.94,0
300,-300,96.3,0
300,-300,229.96,0
300,-300,321.3,0
300,-300,368.24,0
300,-300,372.6,0
300,-300,338.06,0
300,-300,267.93,0
300,-300,167.87,0
300,-300,40.29,0
300,-300,-111.49,0
300,-300,-289.94,0
300,-300,-495.99,0
300,-300,-730.68,0
300,-300,-994.2,0
300,-300,-1285.19,0
300,-300,-1599.67,0
300,-300,-1930.9,0
300,-300,-2268.83,0
300,-300,-2602.7,0
300,-300,-2922.4,0
300,-300,-3216.29,0
300,-300,-3477.69,0
300,-300,-3701,0
300,-300,-3884.28,0
300,-300,-4028.05,0
300,-300,-4134.49,0
300,-300,-4207.28,0
300,-300,-4248.28,0
300,-300,-4259.13,0
300,-300,-4241.07,0
300,-300,-4191.28,0
300,-300,-4109.24,0
300,-300,-3992.48,0
300,-300,-3841.57,0
300,-300,-3658.82,0
300,-300,-3450.27,0
300,-300,-3225.05,0
300,-300,-2991.89,0
300,-300,-2762.73,0
300,-300,-2547.37,0
300,-300,-2353.53,0
300,-300,-2187.27,0
300,-300,-2049.82,0
300,-300,-1939.81,0
300,-300,-1851.59,0
300,-300,-1778.74,0
300,-300,-1716.87,0
300,-300,-1658.55,0
300,-300,-1598.28,0
300,-300,-1535.59,0
300,-300,-1470.19,0
300,-300,-1404.69,0
300,-300,-1341.26,0
300,-300,-1282.3,0
300,-300,-1227.76,0
300,-300,-1176.57,0
300,-300,-1125.22,0
300,-300,-1067.84,0
300,-300,-995.76,0
300,-300,-904.47,0
300,-300,-788.5,0
300,-300,-646.52,0
300,-300,-480.04,0
300,-300,-294.5,0
300,-300,-97.92,0
300,-300,99.79,0
300,-300,286.93,0
300,-300,452.59,0
300,-300,589.08,0
300,-300,691.36,0
300,-300,756.91,0
300,-300,785.77,0
300,-300,780.95,0
300,-300,745.96,0
300,-300,683.6,0
300,-300,593.4,0
300,-300,476.5,0
300,-300,328.23,0
300,-300,146.97,0
300,-300,-73.09,0
300,-300,-333.78,0
300,-300,-634.52,0
300,-300,-970.31,0
300,-300,-1332.81,0
300,-300,-1709.38,0
300,-300,-2088,0
300,-300,-2451.7,0
300,-300,-2787.91,0
300,-300,-3086.49,0
300,-300,-3339.41,0
300,-300,-3544.21,0
300,-300,-3702.37,0
300,-300,-3817.6,0
300,-300,-3895.42,0
300,-300,-3941.75,0
300,-300,-3962.87,0
300,-300,-3960.61,0
300,-300,-3934.47,0
300,-300,-3884.05,0
300,-300,-3807.04,0
300,-300,-3700.94,0
300,-300,-3565.23,0
300,-300,-3401.56,0
300,-300,-3216.13,0
300,-300,-3017.65,0
300,-300,-2804.46,0
300,-300,-2595.82,0
300,-300,-2398.07,0
300,-300,-2220.93,0
300,-300,-2070.58,0
300,-300,-1950.5,0
300,-300,-1862.14,0
300,-300,-1803.12,0
300,-300,-1770.18,0
300,-300,-1758.38,0
300,-300,-1765.66,0
300,-300,-1783.78,0
300,-300,-1807.51,0
300,-300,-1832.22,0
300,-300,-1852.54,0
300,-300,-1862.02,0
300,-300,-1854.06,0
300,-300,-1821.51,0
300,-300,-1757.81,0
300,-300,-1656.19,0
300,-300,-1512.82,0
300,-300,-1325.22,0
300,-300,-1095.05,0
300,-300,-829.82,0
300,-300,-540.14,0
300,-300,-238.72,0
300,-300,58.76,0
300,-300,338.05,0
300,-300,584.89,0
300,-300,789.56,0
300,-300,943.64,0
300,-300,1045.69,0
300,-300,1099.31,0
300,-300,1108.91,0
300,-300,1080.47,0
300,-300,1022.16,0
300,-300,939.76,0
300,-300,837.41,0
300,-300,714.49,0
300,-300,568.76,0
300,-300,392.76,0
300,-300,184.07,0
300,-300,-61.51,0
300,-300,-345.05,0
300,-300,-663.76,0
300,-300,-1009.83,0
300,-300,-1372.45,0
300,-300,-1737.57,0
300,-300,-2090.86,0
300,-300,-2419.4,0
300,-300,-2714.25,0
300,-300,-2969.18,0
300,-300,-3181.47,0
300,-300,-3353.36,0
300,-300,-3490,0
300,-300,-3596.93,0
300,-300,-3679.92,0
300,-300,-3741.78,0
300,-300,-3783.54,0
300,-300,-3803.01,0
300,-300,-3798,0
300,-300,-3760.99,0
300,-300,-3690.65,0
300,-300,-3585.09,0
300,-300,-3447.75,0
300,-300,-3285.13,0
300,-300,-3108.11,0
300,-300,-2929.2,0
300,-300,-2762.58,0
300,-300,-2604.85,0
300,-300,-2480.18,0
300,-300,-2385.98,0
300,-300,-2325.59,0
300,-300,-2294.13,0
300,-300,-2285.14,0
300,-300,-2289.41,0
300,-300,-2298.44,0
300,-300,-2304.71,0
300,-300,-2302.53,0
300,-300,-2293.34,0
300,-300,-2273.56,0
300,-300,-2243.85,0
300,-300,-2207.8,0
300,-300,-2165.91,0
300,-300,-2117.96,0
300,-300,-2060.27,0
300,-300,-1988.62,0
300,-300,-1896.06,0
300,-300,-1777.48,0
300,-300,-1626.24,0
300,-300,-1437.11,0
300,-300,-1222.21,0
300,-300,-978.64,0
300,-300,-715.82,0
300,-300,-446.74,0
300,-300,-184.41,0
300,-300,56.58,0
300,-300,265.14,0
300,-300,431.97,0
300,-300,551.66,0
300,-300,622.69,0
300,-300,650.42,0
300,-300,635.59,0
300,-300,583.57,0
300,-300,498.91,0
300,-300,385.5,0
300,-300,244.19,0
300,-300,75.48,0
300,-300,-122.07,0
300,-300,-349.99,0
300,-300,-606.43,0
300,-300,-888.15,0
300,-300,-1188.56,0
300,-300,-1498.96,0
300,-300,-1807.33,0
300,-300,-2101.49,0
300,-300,-2370.1,0
300,-300,-2603.14,0
300,-300,-2795.04,0
300,-300,-2943.33,0
300,-300,-3049.71,0
300,-300,-3116.99,0
300,-300,-3152.55,0
300,-300,-3161.99,0
300,-300,-3151.06,0
300,-300,-3122.85,0
300,-300,-3078.82,0
300,-300,-3017.37,0
300,-300,-2937.1,0
300,-300,-2832.39,0
300,-300,-2701.04,0
300,-300,-2538.38,0
300,-300,-2348.66,0
300,-300,-2135.65,0
300,-300,-1908.25,0
300,-300,-1678.26,0
300,-300,-1461.04,0
300,-300,-1271.58,0
300,-300,-1127.33,0
300,-300,-1039.04,0
300,-300,-1015.79,0
300,-300,-1058.2,0
300,-300,-1163.78,0
300,-300,-1322.09,0
300,-300,-1518.24,0
300,-300,-1732.16,0
300,-300,-1943.01,0
300,-300,-2128.7,0
300,-300,-2273.9,0
300,-300,-2359.09,0
300,-300,-2376.41,0
300,-300,-2319.58,0
300,-300,-2191.77,0
300,-300,-2000.39,0
300,-300,-1758.01,0
300,-300,-1479.78,0
300,-300,-1183.83,0
300,-300,-887.69,0
300,-300,-609.7,0
300,-300,-358.3,0
300,-300,-157.99,0
300,-300,-0.55,0
300,-300,110.16,0
300,-300,174.84,0
300,-300,196.06,0
300,-300,179.06,0
300,-300,128.68,0
300,-300,50.49,0
300,-300,-52.02,0
300,-300,-177.56,0
300,-300,-321.78,0
300,-300,-488.48,0
300,-300,-678.69,0
300,-300,-891.68,0
300,-300,-1126.5,0
300,-300,-1379.66,0
300,-300,-1646.53,0
300,-300,-1919.97,0
300,-300,-2191.7,0
300,-300,-2453.15,0
300,-300,-2696.78,0
300,-300,-2915.77,0
300,-300,-3105.95,0
300,-300,-3264.61,0
300,-300,-3392.89,0
300,-300,-3492.11,0
300,-300,-3566.01,0
300,-300,-3618.43,0
300,-300,-3649.73,0
300,-300,-3660.29,0
300,-300,-3647.58,0
300,-300,-3609.11,0
300,-300,-3541.01,0
300,-300,-3439.13,0
300,-300,-3300.63,0
300,-300,-3124.93,0
300,-300,-2914.05,0
300,-300,-2660.18,0
300,-300,-2383.65,0
300,-300,-2092.26,0
300,-300,-1798.79,0
300,-300,-1519.91,0
300,-300,-1270.81,0
300,-300,-1065.67,0
300,-300,-915.15,0
300,-300,-826.19,0
300,-300,-800.34,0
300,-300,-836.51,0
300,-300,-922.84,0
300,-300,-1046.46,0
300,-300,-1189.4,0
300,-300,-1332.36,0
300,-300,-1455.64,0
300,-300,-1540.84,0
300,-300,-1573.42,0
300,-300,-1543.39,0
300,-300,-1447.18,0
300,-300,-1287.98,0
300,-300,-1074.03,0
300,-300,-818.75,0
300,-300,-541.01,0
300,-300,-259.64,0
300,-300,6.45,0
300,-300,241.67,0
300,-300,433.99,0
300,-300,576.5,0
300,-300,666.62,0
300,-300,706.46,0
300,-300,700.8,0
300,-300,658.49,0
300,-300,585.23,0
300,-300,487.7,0
300,-300,369.88,0
300,-300,234.03,0
300,-300,79.19,0
300,-300,-96.35,0
300,-300,-295.91,0
300,-300,-522.25,0
300,-300,-777.11,0
300,-300,-1054.76,0
300,-300,-1353.81,0
300,-300,-1665.41,0
300,-300,-1979.09,0
300,-300,-2283.27,0
300,-300,-2566.71,0
300,-300,-2820.03,0
300,-300,-3037.11,0
300,-300,-3214.62,0
300,-300,-3354.04,0
300,-300,-3456.7,0
300,-300,-3527.8,0
300,-300,-3572.01,0
300,-300,-3592.42,0
300,-300,-3590.58,0
300,-300,-3566.24,0
300,-300,-3516.26,0
300,-300,-3434.28,0
300,-300,-3315.86,0
300,-300,-3156.83,0
300,-300,-2954.75,0
300,-300,-2712.98,0
300,-300,-2438.39,0
300,-300,-2144.33,0
300,-300,-1846.48,0
300,-300,-1565.06,0
300,-300,-1319.29,0
300,-300,-1130.74,0
300,-300,-1011.32,0
300,-300,-970.18,0
300,-300,-1008.03,0
300,-300,-1117.35,0
300,-300,-1283.14,0
300,-300,-1484.71,0
300,-300,-1696.33,0
300,-300,-1892.38,0
300,-300,-2047.68,0
300,-300,-2144.31,0
300,-300,-2165.96,0
300,-300,-2105.66,0
300,-300,-1966.6,0
300,-300,-1758.3,0
300,-300,-1495.5,0
300,-300,-1197.96,0
300,-300,-886.76,0
300,-300,-582.46,0
300,-300,-303.55,0
300,-300,-65.27,0
300,-300,128.09,0
300,-300,260.13,0
300,-300,343.61,0
300,-300,381.59,0
300,-300,379.05,0
300,-300,342,0
300,-300,275.2,0
300,-300,182.46,0
300,-300,65.89,0
300,-300,-75.05,0
300,-300,-240.83,0
300,-300,-430.08,0
300,-300,-646.5,0
300,-300,-888.21,0
300,-300,-1151.83,0
300,-300,-1431.34,0
300,-300,-1719.03,0
300,-300,-2005.71,0
300,-300,-2281.75,0
300,-300,-2538.8,0
300,-300,-2769.52,0
300,-300,-2968.39,0
300,-300,-3134.3,0
300,-300,-3267.6,0
300,-300,-3370.33,0
300,-300,-3446.66,0
300,-300,-3500.24,0
300,-300,-3533.86,0
300,-300,-3548.81,0
300,-300,-3545.15,0
300,-300,-3520.51,0
300,-300,-3471.2,0
300,-300,-3394.8,0
300,-300,-3289.6,0
300,-300,-3155.35,0
300,-300,-2994.96,0
300,-300,-2812.81,0
300,-300,-2615.87,0
300,-300,-2413.22,0
300,-300,-2202.47,0
300,-300,-2005.41,0
300,-300,-1825.74,0
300,-300,-1670.92,0
300,-300,-1545.7,0
300,-300,-1452.89,0
300,-300,-1392.95,0
300,-300,-1364.33,0
300,-300,-1363.71,0
300,-300,-1388.43,0
300,-300,-1430.23,0
300,-300,-1482.48,0
300,-300,-1537.34,0
300,-300,-1585.89,0
300,-300,-1619.25,0
300,-300,-1629.65,0
300,-300,-1609.06,0
300,-300,-1552.24,0
300,-300,-1455.81,0
300,-300,-1320.13,0
300,-300,-1147.59,0
300,-300,-947.55,0
300,-300,-728.79,0
300,-300,-503.16,0
300,-300,-283.67,0
300,-300,-81.82,0
300,-300,91.72,0
300,-300,229.95,0
300,-300,328.25,0
300,-300,384.54,0
300,-300,400.95,0
300,-300,383.17,0
300,-300,333.86,0
300,-300,257.85,0
300,-300,158.05,0
300,-300,36.9,0
300,-300,-105.72,0
300,-300,-270.99,0
300,-300,-461.05,0
300,-300,-678.41,0
300,-300,-922.33,0
300,-300,-1188.85,0
300,-300,-1475.02,0
300,-300,-1772.64,0
300,-300,-2071.31,0
300,-300,-2360,0
300,-300,-2628.57,0
300,-300,-2867.69,0
300,-300,-3071.42,0
300,-300,-3238.08,0
300,-300,-3367.76,0
300,-300,-3461.93,0
300,-300,-3525.86,0
300,-300,-3564.08,0
300,-300,-3579.98,0
300,-300,-3575.51,0
300,-300,-3550.22,0
300,-300,-3502.9,0
300,-300,-3430.05,0
300,-300,-3327.82,0
300,-300,-3194.03,0
300,-300,-3026.02,0
300,-300,-2826.47,0
300,-300,-2600.74,0
300,-300,-2356.94,0
300,-300,-2106.63,0
300,-300,-1863.04,0
300,-300,-1640.91,0
300,-300,-1453.85,0
300,-300,-1315.65,0
300,-300,-1232.36,0
300,-300,-1207.48,0
300,-300,-1238.13,0
300,-300,-1317.58,0
300,-300,-1433.39,0
300,-300,-1569.95,0
300,-300,-1709.76,0
300,-300,-1834.9,0
300,-300,-1931.21,0
300,-300,-1983.28,0
300,-300,-1982.34,0
300,-300,-1923.7,0
300,-300,-1807.87,0
300,-300,-1640.52,0
300,-300,-1430.72,0
300,-300,-1191.37,0
300,-300,-936.1,0
300,-300,-679.52,0
300,-300,-435.96,0
300,-300,-217.43,0
300,-300,-28.82,0
300,-300,112.69,0
300,-300,216.88,0
300,-300,282.16,0
300,-300,310.08,0
300,-300,302.55,0
300,-300,263.01,0
300,-300,194.94,0
300,-300,99.84,0
300,-300,-20.33,0
300,-300,-163.12,0
300,-300,-331.07,0
300,-300,-523.79,0
300,-300,-740.5,0
300,-300,-978.45,0
300,-300,-1234.79,0
300,-300,-1502.77,0
300,-300,-1775.63,0
300,-300,-2045.41,0
300,-300,-2303.39,0
300,-300,-2541.29,0
300,-300,-2753.65,0
300,-300,-2936.11,0
300,-300,-3087.12,0
300,-300,-3207.26,0
300,-300,-3298.66,0
300,-300,-3364.02,0
300,-300,-3406.11,0
300,-300,-3427.7,0
300,-300,-3429.11,0
300,-300,-3408.25,0
300,-300,-3364.65,0
300,-300,-3294.96,0
300,-300,-3196.77,0
300,-300,-3067.27,0
300,-300,-2906.29,0
300,-300,-2715.54,0
300,-300,-2499.88,0
300,-300,-2256.9,0
300,-300,-2008.55,0
300,-300,-1761.65,0
300,-300,-1531,0
300,-300,-1329.61,0
300,-300,-1169.37,0
300,-300,-1058.98,0
300,-300,-1003.96,0
300,-300,-1004.65,0
300,-300,-1056.92,0
300,-300,-1151.21,0
300,-300,-1274.93,0
300,-300,-1410.4,0
300,-300,-1540.21,0
300,-300,-1646.13,0
300,-300,-1712.25,0
300,-300,-1725.37,0
300,-300,-1678.08,0
300,-300,-1567.39,0
300,-300,-1396.53,0
300,-300,-1175.02,0
300,-300,-916.04,0
300,-300,-636.96,0
300,-300,-355.69,0
300,-300,-89.69,0
300,-300,145.16,0
300,-300,337.56,0
300,-300,480.97,0
300,-300,572.1,0
300,-300,610.42,0
300,-300,602.21,0
300,-300,552.01,0
300,-300,468.75,0
300,-300,356.83,0
300,-300,221.59,0
300,-300,65.67,0
300,-300,-108.42,0
300,-300,-300.5,0
300,-300,-510.06,0
300,-300,-738.71,0
300,-300,-983.53,0
300,-300,-1240.86,0
300,-300,-1507.26,0
300,-300,-1776.83,0
300,-300,-2041.09,0
300,-300,-2292.47,0
300,-300,-2523.82,0
300,-300,-2729.99,0
300,-300,-2906.79,0
300,-300,-3056.52,0
300,-300,-3178.17,0
300,-300,-3275.71,0
300,-300,-3351.5,0
300,-300,-3409.15,0
300,-300,-3449.44,0
300,-300,-3472.43,0
300,-300,-3475.46,0
300,-300,-3455.9,0
300,-300,-3409.42,0
300,-300,-3329.49,0
300,-300,-3214.53,0
300,-300,-3062.3,0
300,-300,-2875.44,0
300,-300,-2660.19,0
300,-300,-2425.21,0
300,-300,-2183.71,0
300,-300,-1949.49,0
300,-300,-1738.24,0
300,-300,-1562.92,0
300,-300,-1438.46,0
300,-300,-1369.88,0
300,-300,-1359.88,0
300,-300,-1405.68,0
300,-300,-1498.62,0
300,-300,-1624.88,0
300,-300,-1767.12,0
300,-300,-1906.05,0
300,-300,-2022.13,0
300,-300,-2097.78,0
300,-300,-2120.58,0
300,-300,-2080.88,0
300,-300,-1974.74,0
300,-300,-1805.82,0
300,-300,-1582.97,0
300,-300,-1319.05,0
300,-300,-1030.84,0
300,-300,-735.68,0
300,-300,-451.34,0
300,-300,-193.82,0
300,-300,25.63,0
300,-300,202.13,0
300,-300,322.95,0
300,-300,400.25,0
300,-300,434.97,0
300,-300,431.74,0
300,-300,395.49,0
300,-300,331.58,0
300,-300,243.25,0
300,-300,132.21,0
300,-300,-1.32,0
300,-300,-158.42,0
300,-300,-341.72,0
300,-300,-552.03,0
300,-300,-790.09,0
300,-300,-1053.42,0
300,-300,-1337.98,0
300,-300,-1636.14,0
300,-300,-1939.56,0
300,-300,-2238.32,0
300,-300,-2522.79,0
300,-300,-2785.24,0
300,-300,-3019.13,0
300,-300,-3220.23,0
300,-300,-3388.41,0
300,-300,-3523.21,0
300,-300,-3627.72,0
300,-300,-3703.16,0
300,-300,-3751.07,0
300,-300,-3773.96,0
300,-300,-3769.4,0
300,-300,-3734.31,0
300,-300,-3668.85,0
300,-300,-3570.48,0
300,-300,-3440.37,0
300,-300,-3280.41,0
300,-300,-3097.46,0
300,-300,-2899.07,0
300,-300,-2695.57,0
300,-300,-2483.82,0
300,-300,-2282.12,0
300,-300,-2092.76,0
300,-300,-1922.67,0
300,-300,-1773.72,0
300,-300,-1647.01,0
300,-300,-1541.54,0
300,-300,-1455.91,0
300,-300,-1388.04,0
300,-300,-1336.21,0
300,-300,-1301.32,0
300,-300,-1281.57,0
300,-300,-1273.86,0
300,-300,-1278.19,0
300,-300,-1290.35,0
300,-300,-1305.95,0
300,-300,-1317.14,0
300,-300,-1316.59,0
300,-300,-1295.05,0
300,-300,-1245.17,0
300,-300,-1160.99,0
300,-300,-1038.36,0
300,-300,-880.47,0
300,-300,-691.57,0
300,-300,-480.46,0
300,-300,-259.22,0
300,-300,-40.5,0
300,-300,162.67,0
300,-300,340.08,0
300,-300,482.31,0
300,-300,585.3,0
300,-300,646.57,0
300,-300,671.32,0
300,-300,660.93,0
300,-300,620.86,0
300,-300,554.63,0
300,-300,465.11,0
300,-300,352.47,0
300,-300,214.89,0
300,-300,48.09,0
300,-300,-151.29,0
300,-300,-386.35,0
300,-300,-655.95,0
300,-300,-958.2,0
300,-300,-1286.44,0
300,-300,-1630.92,0
300,-300,-1979.11,0
300,-300,-2318.72,0
300,-300,-2637.21,0
300,-300,-2926.96,0
300,-300,-3180.33,0
300,-300,-3395.05,0
300,-300,-3572.19,0
300,-300,-3714.88,0
300,-300,-3826.65,0
300,-300,-3911.83,0
300,-300,-3971.47,0
300,-300,-4006.09,0
300,-300,-4012.71,0
300,-300,-3989.94,0
300,-300,-3931.37,0
300,-300,-3834,0
300,-300,-3697.31,0
300,-300,-3524.3,0
300,-300,-3321.37,0
300,-300,-3099.6,0
300,-300,-2871.58,0
300,-300,-2651.48,0
300,-300,-2451.58,0
300,-300,-2269.74,0
300,-300,-2123.67,0
300,-300,-2010.99,0
300,-300,-1929.51,0
300,-300,-1874.05,0
300,-300,-1836.02,0
300,-300,-1808.3,0
300,-300,-1782.84,0
300,-300,-1755.76,0
300,-300,-1724.12,0
300,-300,-1690.33,0
300,-300,-1654.46,0
300,-300,-1617.81,0
300,-300,-1583.87,0
300,-300,-1552.67,0
300,-300,-1521.09,0
300,-300,-1485.36,0
300,-300,-1437.76,0
300,-300,-1371.92,0
300,-300,-1280.58,0
300,-300,-1159.09,0
300,-300,-1003.68,0
300,-300,-828.35,0
300,-300,-630.45,0
300,-300,-420.07,0
300,-300,-208.99,0
300,-300,-10.35,0
300,-300,164.46,0
300,-300,306.65,0
300,-300,410.19,0
300,-300,473.1,0
300,-300,495.99,0
300,-300,484.64,0
300,-300,441.41,0
300,-300,369.88,0
300,-300,272.22,0
300,-300,149.13,0
300,-300,-0.25,0
300,-300,-178.5,0
300,-300,-388.66,0
300,-300,-631.09,0
300,-300,-903.9,0
300,-300,-1202.59,0
300,-300,-1518.97,0
300,-300,-1842.82,0
300,-300,-2161.88,0
300,-300,-2463.77,0
300,-300,-2737.56,0
300,-300,-2975.39,0
300,-300,-3172.77,0
300,-300,-3329.15,0
300,-300,-3445.98,0
300,-300,-3528.52,0
300,-300,-3581.75,0
300,-300,-3611.02,0
300,-300,-3619.67,0
300,-300,-3609.05,0
300,-300,-3577.75,0
300,-300,-3523.41,0
300,-300,-3444.4,0
300,-300,-3336.92,0
300,-300,-3199.82,0
300,-300,-3035.45,0
300,-300,-2847.3,0
300,-300,-2643.23,0
300,-300,-2431.2,0
300,-300,-2222.93,0
300,-300,-2028.35,0
300,-300,-1857.91,0
300,-300,-1717.6,0
300,-300,-1615.91,0
300,-300,-1552.2,0
300,-300,-1526.88,0
300,-300,-1534.4,0
300,-300,-1568.32,0
300,-300,-1619.87,0
300,-300,-1680.2,0
300,-300,-1739.22,0
300,-300,-1788.36,0
300,-300,-1820.78,0
300,-300,-1829.23,0
300,-300,-1806.35,0
300,-300,-1750.28,0
300,-300,-1658.54,0
300,-300,-1531.32,0
300,-300,-1369.78,0
300,-300,-1178.89,0
300,-300,-964.77,0
300,-300,-735.99,0
300,-300,-501.76,0
300,-300,-270.25,0
300,-300,-63.29,0
300,-300,122.21,0
300,-300,278.16,0
300,-300,398.93,0
300,-300,481.32,0
300,-300,525.07,0
300,-300,532.15,0
300,-300,506.07,0
300,-300,450.61,0
300,-300,367.96,0
300,-300,262.7,0
300,-300,133.56,0
300,-300,-20.35,0
300,-300,-199.51,0
300,-300,-405.11,0
300,-300,-636.82,0
300,-300,-892.49,0
300,-300,-1167.66,0
300,-300,-1456.04,0
300,-300,-1748.29,0
300,-300,-2035.3,0
300,-300,-2306.54,0
300,-300,-2553.48,0
300,-300,-2769.82,0
300,-300,-2951.29,0
300,-300,-3097.26,0
300,-300,-3208.14,0
300,-300,-3287.86,0
300,-300,-3339.43,0
300,-300,-3365.97,0
300,-300,-3369.62,0
300,-300,-3350.98,0
300,-300,-3309.66,0
300,-300,-3243.7,0
300,-300,-3151.22,0
300,-300,-3031.63,0
300,-300,-2886.1,0
300,-300,-2711.81,0
300,-300,-2515.38,0
300,-300,-2301,0
300,-300,-2077.24,0
300,-300,-1853.81,0
300,-300,-1640.51,0
300,-300,-1447.45,0
300,-300,-1283.42,0
300,-300,-1155.29,0
300,-300,-1068.02,0
300,-300,-1027.39,0
300,-300,-1028.62,0
300,-300,-1068.9,0
300,-300,-1141.33,0
300,-300,-1236.56,0
300,-300,-1342.57,0
300,-300,-1446.78,0
300,-300,-1536.23,0
300,-300,-1598.56,0
300,-300,-1623.42,0
300,-300,-1604.94,0
300,-300,-1537.18,0
300,-300,-1419.67,0
300,-300,-1258.02,0
300,-300,-1060.56,0
300,-300,-838.16,0
300,-300,-605.08,0
300,-300,-375,0
300,-300,-162.32,0
300,-300,22.51,0
300,-300,171.02,0
300,-300,278.65,0
300,-300,342.8,0
300,-300,367.85,0
300,-300,356.89,0
300,-300,314.86,0
300,-300,246.34,0
300,-300,155.77,0
300,-300,45.53,0
300,-300,-83.81,0
300,-300,-234.37,0
300,-300,-408.98,0
300,-300,-607.84,0
300,-300,-834.02,0
300,-300,-1086.16,0
300,-300,-1360.63,0
300,-300,-1650.68,0
300,-300,-1947.28,0
300,-300,-2240.35,0
300,-300,-2519.79,0
300,-300,-2776.17,0
300,-300,-3003.63,0
300,-300,-3198.58,0
300,-300,-3359.44,0
300,-300,-3487.92,0
300,-300,-3588.3,0
300,-300,-3663.45,0
300,-300,-3717.63,0
300,-300,-3751.47,0
300,-300,-3766.98,0
300,-300,-3760.13,0
300,-300,-3728.34,0
300,-300,-3668.43,0
300,-300,-3577.71,0
300,-300,-3457.16,0
300,-300,-3310.34,0
300,-300,-3142.73,0
300,-300,-2963.69,0
300,-300,-2782.21,0
300,-300,-2593.62,0
300,-300,-2418.57,0
300,-300,-2260.26,0
300,-300,-2122.04,0
300,-300,-2006.3,0
300,-300,-1913.01,0
300,-300,-1840.28,0
300,-300,-1785.64,0
300,-300,-1746.46,0
300,-300,-1720.16,0
300,-300,-1707.41,0
300,-300,-1703.5,0
300,-300,-1706.23,0
300,-300,-1712.81,0
300,-300,-1718.63,0
300,-300,-1717.27,0
300,-300,-1701.37,0
300,-300,-1662.29,0
300,-300,-1592.66,0
300,-300,-1485.58,0
300,-300,-1338.74,0
300,-300,-1148.99,0
300,-300,-926.34,0
300,-300,-677.12,0
300,-300,-413.37,0
300,-300,-148.63,0
300,-300,102.52,0
300,-300,327.45,0
300,-300,515.53,0
300,-300,660.57,0
300,-300,757.83,0
300,-300,809.46,0
300,-300,822.12,0
300,-300,797.57,0
300,-300,741.56,0
300,-300,658.13,0
300,-300,549.05,0
300,-300,413.53,0
300,-300,248.48,0
300,-300,50.42,0
300,-300,-184.52,0
300,-300,-457.6,0
300,-300,-764.95,0
300,-300,-1103.24,0
300,-300,-1462.14,0
300,-300,-1829.04,0
300,-300,-2190.13,0
300,-300,-2531.7,0
300,-300,-2842.33,0
300,-300,-3113.63,0
300,-300,-3341.33,0
300,-300,-3525.31,0
300,-300,-3668.08,0
300,-300,-3773.45,0
300,-300,-3847.26,0
300,-300,-3892.98,0
300,-300,-3912.9,0
300,-300,-3906.13,0
300,-300,-3870.65,0
300,-300,-3802.75,0
300,-300,-3700.54,0
300,-300,-3561.3,0
300,-300,-3386.9,0
300,-300,-3182.92,0
300,-300,-2960.08,0
300,-300,-2730.2,0
300,-300,-2507.66,0
300,-300,-2304.9,0
300,-300,-2133.2,0
300,-300,-1998.64,0
300,-300,-1894.11,0
300,-300,-1826.91,0
300,-300,-1786.87,0
300,-300,-1763.14,0
300,-300,-1745.61,0
300,-300,-1724.27,0
300,-300,-1692.93,0
300,-300,-1647.18,0
300,-300,-1588.59,0
300,-300,-1520.23,0
300,-300,-1450.33,0
300,-300,-1381.03,0
300,-300,-1320.12,0
300,-300,-1269.3,0
300,-300,-1227.11,0
300,-300,-1188.91,0
300,-300,-1146.83,0
300,-300,-1091.94,0
300,-300,-1016.65,0
300,-300,-914.23,0
300,-300,-779.09,0
300,-300,-626.53,0
300,-300,-450.28,0
300,-300,-260.51,0
300,-300,-70.45,0
300,-300,107.12,0
300,-300,260.05,0
300,-300,379.91,0
300,-300,461.81,0
300,-300,505.07,0
300,-300,509.12,0
300,-300,483.11,0
300,-300,427.33,0
300,-300,346.11,0
300,-300,241.12,0
300,-300,112.76,0
300,-300,-42.08,0
300,-300,-225.73,0
300,-300,-442.54,0
300,-300,-693.13,0
300,-300,-977.8,0
300,-300,-1289.98,0
300,-300,-1623.64,0
300,-300,-1966.72,0
300,-300,-2307.42,0
300,-300,-2632.58,0
300,-300,-2931.53,0
300,-300,-3195.31,0
300,-300,-3419.1,0
300,-300,-3600.8,0
300,-300,-3742.92,0
300,-300,-3847.35,0
300,-300,-3920.18,0
300,-300,-3964.83,0
300,-300,-3983.79,0
300,-300,-3977.13,0
300,-300,-3943.44,0
300,-300,-3879.63,0
300,-300,-3783.25,0
300,-300,-3652.38,0
300,-300,-3489.04,0
300,-300,-3296.17,0
300,-300,-3080.89,0
300,-300,-2852.87,0
300,-300,-2623.39,0
300,-300,-2403.66,0
300,-300,-2205.18,0
300,-300,-2035.21,0
300,-300,-1899.54,0
300,-300,-1796.2,0
300,-300,-1728.23,0
300,-300,-1688.01,0
300,-300,-1669.15,0
300,-300,-1664.17,0
300,-300,-1666.44,0
300,-300,-1669.01,0
300,-300,-1668.01,0
300,-300,-1660.5,0
300,-300,-1644.94,0
300,-300,-1621.96,0
300,-300,-1589.56,0
300,-300,-1545.74,0
300,-300,-1489.18,0
300,-300,-1416.34,0
300,-300,-1324.01,0
300,-300,-1208.58,0
300,-300,-1069.2,0
300,-300,-906.15,0
300,-300,-723.73,0
300,-300,-527.16,0
300,-300,-322.34,0
300,-300,-128.42,0
300,-300,55.18,0
300,-300,217.57,0
300,-300,349.17,0
300,-300,444.07,0
300,-300,499.14,0
300,-300,514.93,0
300,-300,493.57,0
300,-300,436.33,0
300,-300,348.56,0
300,-300,233.35,0
300,-300,90.24,0
300,-300,-79.19,0
300,-300,-275.22,0
300,-300,-497.61,0
300,-300,-744.97,0
300,-300,-1014.49,0
300,-300,-1301.11,0
300,-300,-1598.48,0
300,-300,-1896.78,0
300,-300,-2186.48,0
300,-300,-2458.59,0
300,-300,-2704.32,0
300,-300,-2918.3,0
300,-300,-3096.78,0
300,-300,-3239.94,0
300,-300,-3348.83,0
300,-300,-3427.31,0
300,-300,-3479.54,0
300,-300,-3509.84,0
300,-300,-3518.23,0
300,-300,-3507.53,0
300,-300,-3476.11,0
300,-300,-3422.34,0
300,-300,-3343.16,0
300,-300,-3238.11,0
300,-300,-3106.98,0
300,-300,-2953.61,0
300,-300,-2771.12,0
300,-300,-2573.48,0
300,-300,-2364.36,0
300,-300,-2153.39,0
300,-300,-1949.52,0
300,-300,-1762.55,0
300,-300,-1600.21,0
300,-300,-1469.42,0
300,-300,-1374.63,0
300,-300,-1318.17,0
300,-300,-1302.49,0
300,-300,-1322.1,0
300,-300,-1371.11,0
300,-300,-1441.27,0
300,-300,-1521.71,0
300,-300,-1601.14,0
300,-300,-1666.51,0
300,-300,-1705.93,0
300,-300,-1708.24,0
300,-300,-1667.54,0
300,-300,-1576.07,0
300,-300,-1434.37,0
300,-300,-1244.97,0
300,-300,-1016.9,0
300,-300,-761.6,0
300,-300,-494.06,0
300,-300,-229,0
300,-300,17.99,0
300,-300,235.14,0
300,-300,410.79,0
300,-300,540.94,0
300,-300,620.07,0
300,-300,654.74,0
300,-300,647.35,0
300,-300,604.17,0
300,-300,531.22,0
300,-300,434.37,0
300,-300,316.98,0
300,-300,180.68,0
300,-300,23.72,0
300,-300,-155.74,0
300,-300,-359.37,0
300,-300,-590.64,0
300,-300,-849.19,0
300,-300,-1131.94,0
300,-300,-1432.81,0
300,-300,-1743.07,0
300,-300,-2051.55,0
300,-300,-2346.99,0
300,-300,-2620.37,0
300,-300,-2861.53,0
300,-300,-3066.57,0
300,-300,-3232.77,0
300,-300,-3361.68,0
300,-300,-3455.75,0
300,-300,-3519.55,0
300,-300,-3556.12,0
300,-300,-3568.18,0
300,-300,-3556.01,0
300,-300,-3520.43,0
300,-300,-3457.58,0
300,-300,-3362.86,0
300,-300,-3236.61,0
300,-300,-3078.4,0
300,-300,-2890.65,0
300,-300,-2679.26,0
300,-300,-2451.76,0
300,-300,-2218.35,0
300,-300,-1989.81,0
300,-300,-1765.19,0
300,-300,-1567.14,0
300,-300,-1397.98,0
300,-300,-1264.01,0
300,-300,-1167.71,0
300,-300,-1108.95,0
300,-300,-1086.38,0
300,-300,-1096.29,0
300,-300,-1134.32,0
300,-300,-1194.42,0
300,-300,-1271.2,0
300,-300,-1356.39,0
300,-300,-1442.04,0
300,-300,-1518.64,0
300,-300,-1577.61,0
300,-300,-1609.05,0
300,-300,-1604.67,0
300,-300,-1557.61,0
300,-300,-1464.42,0
300,-300,-1324.37,0
300,-300,-1143.03,0
300,-300,-924.31,0
300,-300,-691.04,0
300,-300,-449.08,0
300,-300,-215.57,0
300,-300,-4.11,0
300,-300,172.49,0
300,-300,306.58,0
300,-300,393.48,0
300,-300,431.8,0
300,-300,426.32,0
300,-300,382.24,0
300,-300,308.82,0
300,-300,209.95,0
300,-300,89.46,0
300,-300,-50.06,0
300,-300,-209.49,0
300,-300,-390.63,0
300,-300,-597.18,0
300,-300,-833.03,0
300,-300,-1098.05,0
300,-300,-1388.6,0
300,-300,-1701.01,0
300,-300,-2025.71,0
300,-300,-2351.27,0
300,-300,-2664.75,0
300,-300,-2954.63,0
300,-300,-3211.45,0
300,-300,-3428.8,0
300,-300,-3605.41,0
300,-300,-3741.27,0
300,-300,-3839.75,0
300,-300,-3905.94,0
300,-300,-3944.88,0
300,-300,-3959.73,0
300,-300,-3951.76,0
300,-300,-3920.17,0
300,-300,-3862.19,0
300,-300,-3774.32,0
300,-300,-3655.91,0
300,-300,-3505.06,0
300,-300,-3324.72,0
300,-300,-3121.98,0
300,-300,-2905.93,0
300,-300,-2686.92,0
300,-300,-2476.37,0
300,-300,-2284.52,0
300,-300,-2119.62,0
300,-300,-1985.51,0
300,-300,-1878.29,0
300,-300,-1802.46,0
300,-300,-1747.78,0
300,-300,-1708.4,0
300,-300,-1675.93,0
300,-300,-1643.97,0
300,-300,-1607.1,0
300,-300,-1563.76,0
300,-300,-1513.85,0
300,-300,-1458.89,0
300,-300,-1401.12,0
300,-300,-1343.49,0
300,-300,-1283.52,0
300,-300,-1221.33,0
300,-300,-1153.64,0
300,-300,-1074.66,0
300,-300,-978.87,0
300,-300,-861.61,0
300,-300,-720.78,0
300,-300,-557.7,0
300,-300,-375.68,0
300,-300,-179.76,0
300,-300,9.13,0
300,-300,193.39,0
300,-300,360.56,0
300,-300,500.36,0
300,-300,605.5,0
300,-300,672.38,0
300,-300,701.89,0
300,-300,696.69,0
300,-300,660.12,0
300,-300,596.92,0
300,-300,510.17,0
300,-300,400.1,0
300,-300,265.13,0
300,-300,102,0
300,-300,-92.78,0
300,-300,-322.61,0
300,-300,-588.39,0
300,-300,-887.87,0
300,-300,-1216.42,0
300,-300,-1563.8,0
300,-300,-1917.73,0
300,-300,-2265.45,0
300,-300,-2593.14,0
300,-300,-2889.68,0
300,-300,-3146.53,0
300,-300,-3359.1,0
300,-300,-3526.88,0
300,-300,-3652.54,0
300,-300,-3742.48,0
300,-300,-3799.29,0
300,-300,-3829.82,0
300,-300,-3837.42,0
300,-300,-3822.29,0
300,-300,-3783.35,0
300,-300,-3717.59,0
300,-300,-3621.78,0
300,-300,-3494.64,0
300,-300,-3336.9,0
300,-300,-3155.04,0
300,-300,-2954.24,0
300,-300,-2748.31,0
300,-300,-2550.03,0
300,-300,-2372.54,0
300,-300,-2225.63,0
300,-300,-2116.34,0
300,-300,-2045.36,0
300,-300,-2009.25,0
300,-300,-1998.52,0
300,-300,-1998.29,0
300,-300,-1999.01,0
300,-300,-1987.58,0
300,-300,-1953.78,0
300,-300,-1892.41,0
300,-300,-1803.54,0
300,-300,-1692.76,0
300,-300,-1568.84,0
300,-300,-1442.99,0
300,-300,-1325.87,0
300,-300,-1228.07,0
300,-300,-1151.45,0
300,-300,-1098.26,0
300,-300,-1062.2,0
300,-300,-1034.36,0
300,-300,-1003.11,0
300,-300,-956.88,0
300,-300,-885.93,0
300,-300,-783.9,0
300,-300,-649.26,0
300,-300,-483.51,0
300,-300,-301.38,0
300,-300,-106.32,0
300,-300,85.8,0
300,-300,261.59,0
300,-300,409.9,0
300,-300,523.13,0
300,-300,597.41,0
300,-300,632.83,0
300,-300,629.98,0
300,-300,592.75,0
300,-300,523.93,0
300,-300,426.18,0
300,-300,299.08,0
300,-300,141.44,0
300,-300,-47.93,0
300,-300,-271.19,0
300,-300,-528.69,0
300,-300,-818.67,0
300,-300,-1136.8,0
300,-300,-1474.88,0
300,-300,-1823.74,0
300,-300,-2171.13,0
300,-300,-2505.11,0
300,-300,-2815.66,0
300,-300,-3093.48,0
300,-300,-3333.47,0
300,-300,-3532.79,0
300,-300,-3692.2,0
300,-300,-3815.79,0
300,-300,-3906.6,0
300,-300,-3967.67,0
300,-300,-4002.87,0
300,-300,-4012.71,0
300,-300,-3996.32,0
300,-300,-3951.27,0
300,-300,-3874.62,0
300,-300,-3764.55,0
300,-300,-3621.07,0
300,-300,-3449.01,0
300,-300,-3254.35,0
300,-300,-3046.16,0
300,-300,-2837.34,0
300,-300,-2639.16,0
300,-300,-2461.81,0
300,-300,-2312.59,0
300,-300,-2195.4,0
300,-300,-2108.51,0
300,-300,-2047.76,0
300,-300,-2003.47,0
300,-300,-1968.82,0
300,-300,-1932.39,0
300,-300,-1887.68,0
300,-300,-1829.1,0
300,-300,-1755.86,0
300,-300,-1669.88,0
300,-300,-1576.15,0
300,-300,-1480.81,0
300,-300,-1390.72,0
300,-300,-1311.6,0
300,-300,-1245.39,0
300,-300,-1189.12,0
300,-300,-1140.63,0
300,-300,-1091.75,0
300,-300,-1034.79,0
300,-300,-961.72,0
300,-300,-867.39,0
300,-300,-748.4,0
300,-300,-606.52,0
300,-300,-445.05,0
300,-300,-272.93,0
300,-300,-102.57,0
300,-300,59.92,0
300,-300,203,0
300,-300,317.96,0
300,-300,399.09,0
300,-300,444.22,0
300,-300,454.32,0
300,-300,430.67,0
300,-300,375.94,0
300,-300,291.68,0
300,-300,180.85,0
300,-300,41.71,0
300,-300,-125.62,0
300,-300,-322.9,0
300,-300,-550.06,0
300,-300,-805.59,0
300,-300,-1085.67,0
300,-300,-1384.55,0
300,-300,-1693.55,0
300,-300,-2002.35,0
300,-300,-2301.13,0
300,-300,-2579.15,0
300,-300,-2828.35,0
300,-300,-3043.06,0
300,-300,-3219.89,0
300,-300,-3359.04,0
300,-300,-3462.05,0
300,-300,-3533.66,0
300,-300,-3577.47,0
300,-300,-3595.66,0
300,-300,-3591.05,0
300,-300,-3564.44,0
300,-300,-3514.19,0
300,-300,-3438.16,0
300,-300,-3334.43,0
300,-300,-3203.05,0
300,-300,-3045.47,0
300,-300,-2858.77,0
300,-300,-2650.89,0
300,-300,-2427.6,0
300,-300,-2197.57,0
300,-300,-1970.98,0
300,-300,-1757.77,0
300,-300,-1568.19,0
300,-300,-1410.21,0
300,-300,-1290.57,0
300,-300,-1212.51,0
300,-300,-1182.53,0
300,-300,-1193.42,0
300,-300,-1241.25,0
300,-300,-1318.16,0
300,-300,-1413.96,0
300,-300,-1515.33,0
300,-300,-1609.24,0
300,-300,-1681.53,0
300,-300,-1719.8,0
300,-300,-1713.22,0
300,-300,-1657.09,0
300,-300,-1545.7,0
300,-300,-1381.25,0
300,-300,-1170.56,0
300,-300,-924.49,0
300,-300,-657.03,0
300,-300,-384.56,0
300,-300,-123.41,0
300,-300,110.8,0
300,-300,306.49,0
300,-300,454.14,0
300,-300,550.32,0
300,-300,593.99,0
300,-300,590.74,0
300,-300,545.78,0
300,-300,466.7,0
300,-300,359.48,0
300,-300,231.05,0
300,-300,84.14,0
300,-300,-79.29,0
300,-300,-261.47,0
300,-300,-464,0
300,-300,-688.52,0
300,-300,-936.29,0
300,-300,-1207,0
300,-300,-1495.14,0
300,-300,-1794.67,0
300,-300,-2095.05,0
300,-300,-2385.65,0
300,-300,-2655.78,0
300,-300,-2895.64,0
300,-300,-3099.29,0
300,-300,-3264.05,0
300,-300,-3388.11,0
300,-300,-3476.13,0
300,-300,-3531.86,0
300,-300,-3561,0
300,-300,-3566.77,0
300,-300,-3552.33,0
300,-300,-3517.82,0
300,-300,-3462.02,0
300,-300,-3380.92,0
300,-300,-3271.77,0
300,-300,-3132.22,0
300,-300,-2963.83,0
300,-300,-2768.36,0
300,-300,-2552.34,0
300,-300,-2322.74,0
300,-300,-2090.14,0
300,-300,-1851.42,0
300,-300,-1630.73,0
300,-300,-1432.16,0
300,-300,-1262.79,0
300,-300,-1127.06,0
300,-300,-1027.26,0
300,-300,-962.64,0
300,-300,-931.27,0
300,-300,-928.63,0
300,-300,-949.46,0
300,-300,-987.65,0
300,-300,-1034.32,0
300,-300,-1081.46,0
300,-300,-1121.1,0
300,-300,-1144.35,0
300,-300,-1143.42,0
300,-300,-1110.49,0
300,-300,-1040.89,0
300,-300,-931.65,0
300,-300,-783.47,0
300,-300,-601.06,0
300,-300,-390.15,0
300,-300,-167.78,0
300,-300,55.43,0
300,-300,265.97,0
300,-300,450.14,0
300,-300,597.56,0
300,-300,700.89,0
300,-300,757.23,0
300,-300,766.99,0
300,-300,732.89,0
300,-300,661.96,0
300,-300,566.31,0
300,-300,447.74,0
300,-300,313.04,0
300,-300,164.07,0
300,-300,1.66,0
300,-300,-177.23,0
300,-300,-375.56,0
300,-300,-598.54,0
300,-300,-848.86,0
300,-300,-1127.06,0
300,-300,-1427.16,0
300,-300,-1745.5,0
300,-300,-2070.77,0
300,-300,-2392.34,0
300,-300,-2698.55,0
300,-300,-2980.12,0
300,-300,-3229.54,0
300,-300,-3443.86,0
300,-300,-3621.75,0
300,-300,-3766.81,0
300,-300,-3881.67,0
300,-300,-3970.65,0
300,-300,-4036.81,0
300,-300,-4081.43,0
300,-300,-4102.39,0
300,-300,-4096.63,0
300,-300,-4059.15,0
300,-300,-3986.24,0
300,-300,-3875.01,0
300,-300,-3727.67,0
300,-300,-3546.01,0
300,-300,-3339.29,0
300,-300,-3116.64,0
300,-300,-2889.87,0
300,-300,-2669.8,0
300,-300,-2467.15,0
300,-300,-2289.06,0
300,-300,-2135.68,0
300,-300,-2014.26,0
300,-300,-1920.09,0
300,-300,-1849.49,0
300,-300,-1795.22,0
300,-300,-1751.38,0
300,-300,-1713.31,0
300,-300,-1676.16,0
300,-300,-1638.16,0
300,-300,-1597.15,0
300,-300,-1554.36,0
300,-300,-1507.86,0
300,-300,-1456.56,0
300,-300,-1397.75,0
300,-300,-1329.04,0
300,-300,-1245.64,0
300,-300,-1144.21,0
300,-300,-1021.05,0
300,-300,-875.88,0
300,-300,-710.22,0
300,-300,-529.02,0
300,-300,-335.18,0
300,-300,-150.98,0
300,-300,27.79,0
300,-300,190.36,0
300,-300,327.31,0
300,-300,431.72,0
300,-300,501.14,0
300,-300,534.61,0
300,-300,534.76,0
300,-300,503.23,0
300,-300,444.6,0
300,-300,361.09,0
300,-300,251.79,0
300,-300,115.92,0
300,-300,-48.59,0
300,-300,-244.92,0
300,-300,-474.89,0
300,-300,-738.72,0
300,-300,-1033.25,0
300,-300,-1354.08,0
300,-300,-1690.85,0
300,-300,-2032.36,0
300,-300,-2367.01,0
300,-300,-2682.85,0
300,-300,-2970.16,0
300,-300,-3221.74,0
300,-300,-3434,0
300,-300,-3606.36,0
300,-300,-3740.8,0
300,-300,-3840.65,0
300,-300,-3910.22,0
300,-300,-3950.05,0
300,-300,-3963.75,0
300,-300,-3950.5,0
300,-300,-3908.27,0
300,-300,-3834.72,0
300,-300,-3727.09,0
300,-300,-3585.79,0
300,-300,-3413.68,0
300,-300,-3218.6,0
300,-300,-3009.37,0
300,-300,-2798.22,0
300,-300,-2598.73,0
300,-300,-2423.5,0
300,-300,-2280.62,0
300,-300,-2175.1,0
300,-300,-2105.59,0
300,-300,-2066.6,0
300,-300,-2048.31,0
300,-300,-2034.67,0
300,-300,-2018.57,0
300,-300,-1987.34,0
300,-300,-1932.83,0
300,-300,-1853.06,0
300,-300,-1750.3,0
300,-300,-1631.79,0
300,-300,-1507.14,0
300,-300,-1387.23,0
300,-300,-1282.6,0
300,-300,-1199.93,0
300,-300,-1141.43,0
300,-300,-1105.13,0
300,-300,-1082.64,0
300,-300,-1064.92,0
300,-300,-1038.86,0
300,-300,-993.34,0
300,-300,-918.84,0
300,-300,-811.13,0
300,-300,-669.41,0
300,-300,-497.31,0
300,-300,-308.4,0
300,-300,-109.12,0
300,-300,86.95,0
300,-300,265.85,0
300,-300,417.71,0
300,-300,535.83,0
300,-300,618.21,0
300,-300,664.71,0
300,-300,675.33,0
300,-300,654.14,0
300,-300,603.44,0
300,-300,522.06,0
300,-300,409.76,0
300,-300,263.85,0
300,-300,82.22,0
300,-300,-137.72,0
300,-300,-395.71,0
300,-300,-689.44,0
300,-300,-1013.96,0
300,-300,-1359.35,0
300,-300,-1715.1,0
300,-300,-2069.06,0
300,-300,-2408.7,0
300,-300,-2724.03,0
300,-300,-3007.28,0
300,-300,-3254.07,0
300,-300,-3462.6,0
300,-300,-3634.78,0
300,-300,-3774.25,0
300,-300,-3884.26,0
300,-300,-3966.59,0
300,-300,-4024.88,0
300,-300,-4057.46,0
300,-300,-4062.28,0
300,-300,-4035.2,0
300,-300,-3972.67,0
300,-300,-3872.23,0
300,-300,-3734.41,0
300,-300,-3564.71,0
300,-300,-3371.33,0
300,-300,-3164.85,0
300,-300,-2961.58,0
300,-300,-2775.42,0
300,-300,-2618.76,0
300,-300,-2499.28,0
300,-300,-2419.45,0
300,-300,-2376.27,0
300,-300,-2359.65,0
300,-300,-2349.66,0
300,-300,-2339.83,0
300,-300,-2312.17,0
300,-300,-2254.36,0
300,-300,-2159.98,0
300,-300,-2028.75,0
300,-300,-1866.86,0
300,-300,-1685.28,0
300,-300,-1498.68,0
300,-300,-1322.92,0
300,-300,-1171.9,0
300,-300,-1055.14,0
300,-300,-975.63,0
300,-300,-931.43,0
300,-300,-914.16,0
300,-300,-910.77,0
300,-300,-905.89,0
300,-300,-884.91,0
300,-300,-835.57,0
300,-300,-749.7,0
300,-300,-626.11,0
300,-300,-467.36,0
300,-300,-287.08,0
300,-300,-92.79,0
300,-300,99.34,0
300,-300,274.7,0
300,-300,421.58,0
300,-300,532.4,0
300,-300,604.05,0
300,-300,634.9,0
300,-300,628.38,0
300,-300,587.65,0
300,-300,515.87,0
300,-300,414.85,0
300,-300,284.9,0
300,-300,125.24,0
300,-300,-65.67,0
300,-300,-289.78,0
300,-300,-546.55,0
300,-300,-835.49,0
300,-300,-1148.84,0
300,-300,-1479.03,0
300,-300,-1814.82,0
300,-300,-2144.52,0
300,-300,-2455.07,0
300,-300,-2736.49,0
300,-300,-2979.81,0
300,-300,-3180.66,0
300,-300,-3337.38,0
300,-300,-3453.92,0
300,-300,-3533.61,0
300,-300,-3580.72,0
300,-300,-3602.24,0
300,-300,-3602.05,0
300,-300,-3580.69,0
300,-300,-3538.22,0
300,-300,-3471.95,0
300,-300,-3378.93,0
300,-300,-3257.11,0
300,-300,-3108.58,0
300,-300,-2934.67,0
300,-300,-2742.52,0
300,-300,-2543.16,0
300,-300,-2347.77,0
300,-300,-2168.03,0
300,-300,-2013.82,0
300,-300,-1892.35,0
300,-300,-1806.72,0
300,-300,-1755.29,0
300,-300,-1728.08,0
300,-300,-1723.62,0
300,-300,-1727.51,0
300,-300,-1730.53,0
300,-300,-1723.83,0
300,-300,-1701.88,0
300,-300,-1663.18,0
300,-300,-1609.28,0
300,-300,-1544.68,0
300,-300,-1474.65,0
300,-300,-1405.55,0
300,-300,-1341.58,0
300,-300,-1282.88,0
300,-300,-1228.51,0
300,-300,-1173.7,0
300,-300,-1111.72,0
300,-300,-1035.77,0
300,-300,-939.75,0
300,-300,-820.38,0
300,-300,-677.54,0
300,-300,-512.87,0
300,-300,-333.39,0
300,-300,-154.43,0
300,-300,21.74,0
300,-300,182.87,0
300,-300,318.58,0
300,-300,422.54,0
300,-300,491.46,0
300,-300,526.43,0
300,-300,528.4,0
300,-300,502.04,0
300,-300,449.62,0
300,-300,374.01,0
300,-300,274.9,0
300,-300,150.27,0
300,-300,-2.62,0
300,-300,-186.65,0
300,-300,-404.14,0
300,-300,-654.11,0
300,-300,-933.95,0
300,-300,-1235.19,0
300,-300,-1549.94,0
300,-300,-1864.71,0
300,-300,-2168.06,0
300,-300,-2448.72,0
300,-300,-2697.69,0
300,-300,-2909.05,0
300,-300,-3081.29,0
300,-300,-3214.89,0
300,-300,-3313.7,0
300,-300,-3382.8,0
300,-300,-3425.84,0
300,-300,-3447.26,0
300,-300,-3448.57,0
300,-300,-3428.71,0
300,-300,-3385.02,0
300,-300,-3313.59,0
300,-300,-3211.78,0
300,-300,-3078.28,0
300,-300,-2916.29,0
300,-300,-2730.38,0
300,-300,-2527.91,0
300,-300,-2320.26,0
300,-300,-2118.67,0
300,-300,-1932.59,0
300,-300,-1770.87,0
300,-300,-1638.42,0
300,-300,-1536.91,0
300,-300,-1464.43,0
300,-300,-1415.22,0
300,-300,-1384.92,0
300,-300,-1363.78,0
300,-300,-1346.66,0
300,-300,-1328.12,0
300,-300,-1305.18,0
300,-300,-1277.89,0
300,-300,-1246.9,0
300,-300,-1214.27,0
300,-300,-1181.09,0
300,-300,-1149.97,0
300,-300,-1119.23,0
300,-300,-1083.6,0
300,-300,-1041.01,0
300,-300,-985.2,0
300,-300,-910.95,0
300,-300,-815.23,0
300,-300,-696.96,0
300,-300,-559.49,0
300,-300,-407.47,0
300,-300,-249.89,0
300,-300,-94.55,0
300,-300,43.4,0
300,-300,161.23,0
300,-300,249.79,0
300,-300,304.23,0
300,-300,321.58,0
300,-300,304.64,0
300,-300,255.91,0
300,-300,178.19,0
300,-300,76,0
300,-300,-49.76,0
300,-300,-198.3,0
300,-300,-371.13,0
300,-300,-571.2,0
300,-300,-800.1,0
300,-300,-1058.86,0
300,-300,-1345.71,0
300,-300,-1655.56,0
300,-300,-1981.68,0
300,-300,-2313.4,0
300,-300,-2639.11,0
300,-300,-2949.22,0
300,-300,-3230.67,0
300,-300,-3477.22,0
300,-300,-3683.18,0
300,-300,-3847.63,0
300,-300,-3971.24,0
300,-300,-4057.87,0
300,-300,-4112.19,0
300,-300,-4137.26,0
300,-300,-4134.65,0
300,-300,-4106.22,0
300,-300,-4050.71,0
300,-300,-3966.59,0
300,-300,-3851.39,0
300,-300,-3704.7,0
300,-300,-3527.76,0
300,-300,-3325.6,0
300,-300,-3106.79,0
300,-300,-2882.74,0
300,-300,-2664.78,0
300,-300,-2466.62,0
300,-300,-2297.22,0
300,-300,-2162.84,0
300,-300,-2064.42,0
300,-300,-1998.44,0
300,-300,-1956.62,0
300,-300,-1927.52,0
300,-300,-1896.74,0
300,-300,-1856.64,0
300,-300,-1796.38,0
300,-300,-1712.21,0
300,-300,-1604.26,0
300,-300,-1478.6,0
300,-300,-1343.92,0
300,-300,-1211.43,0
300,-300,-1091.89,0
300,-300,-994.03,0
300,-300,-922.02,0
300,-300,-876.07,0
300,-300,-849.08,0
300,-300,-833.07,0
300,-300,-815.69,0
300,-300,-785.25,0
300,-300,-730.58,0
300,-300,-645.34,0
300,-300,-526.27,0
300,-300,-376.4,0
300,-300,-203.16,0
300,-300,-17.01,0
300,-300,168.39,0
300,-300,342.12,0
300,-300,492.85,0
300,-300,612.46,0
300,-300,697.36,0
300,-300,746.37,0
300,-300,762.44,0
300,-300,746.08,0
300,-300,702.13,0
300,-300,630.41,0
300,-300,532.51,0
300,-300,404.9,0
300,-300,244.26,0
300,-300,47.13,0
300,-300,-188.62,0
300,-300,-462.76,0
300,-300,-771.08,0
300,-300,-1107.93,0
300,-300,-1461.33,0
300,-300,-1820.39,0
300,-300,-2171.13,0
300,-300,-2502.23,0
300,-300,-2803.54,0
300,-300,-3067.62,0
300,-300,-3291.53,0
300,-300,-3475.55,0
300,-300,-3621.35,0
300,-300,-3734.65,0
300,-300,-3820.03,0
300,-300,-3879.44,0
300,-300,-3915.64,0
300,-300,-3927.86,0
300,-300,-3913.52,0
300,-300,-3869.23,0
300,-300,-3791.21,0
300,-300,-3678.44,0
300,-300,-3532.71,0
300,-300,-3360.36,0
300,-300,-3170.19,0
300,-300,-2973.5,0
300,-300,-2783.89,0
300,-300,-2612.98,0
300,-300,-2469.4,0
300,-300,-2359.5,0
300,-300,-2282.71,0
300,-300,-2234.8,0
300,-300,-2202.43,0
300,-300,-2181.24,0
300,-300,-2157.5,0
300,-300,-2119.93,0
300,-300,-2063.59,0
300,-300,-1985.6,0
300,-300,-1888.64,0
300,-300,-1778.26,0
300,-300,-1663.38,0
300,-300,-1554.16,0
300,-300,-1459.43,0
300,-300,-1383.2,0
300,-300,-1327.6,0
300,-300,-1288.06,0
300,-300,-1257.16,0
300,-300,-1225.2,0
300,-300,-1180.53,0
300,-300,-1113.01,0
300,-300,-1015.67,0
300,-300,-885.72,0
300,-300,-724.06,0
300,-300,-537.48,0
300,-300,-335.86,0
300,-300,-133.78,0
300,-300,59.25,0
300,-300,230.79,0
300,-300,371.49,0
300,-300,476.1,0
300,-300,543.39,0
300,-300,574.4,0
300,-300,569.93,0
300,-300,534.97,0
300,-300,470.94,0
300,-300,378.22,0
300,-300,255.56,0
300,-300,100.31,0
300,-300,-89.42,0
300,-300,-315.89,0
300,-300,-577.92,0
300,-300,-872.45,0
300,-300,-1192.32,0
300,-300,-1528.86,0
300,-300,-1869.64,0
300,-300,-2202.6,0
300,-300,-2515.73,0
300,-300,-2798.99,0
300,-300,-3045.28,0
300,-300,-3251.09,0
300,-300,-3415.17,0
300,-300,-3540.36,0
300,-300,-3631.49,0
300,-300,-3693.37,0
300,-300,-3727.49,0
300,-300,-3738.23,0
300,-300,-3724.83,0
300,-300,-3686.32,0
300,-300,-3619.45,0
300,-300,-3522.67,0
300,-300,-3395,0
300,-300,-3237.08,0
300,-300,-3052.19,0
300,-300,-2847.19,0
300,-300,-2629.23,0
300,-300,-2410.26,0
300,-300,-2200.42,0
300,-300,-2011.25,0
300,-300,-1850.83,0
300,-300,-1726.69,0
300,-300,-1641.75,0
300,-300,-1600.34,0
300,-300,-1596.14,0
300,-300,-1625.03,0
300,-300,-1678.14,0
300,-300,-1746.54,0
300,-300,-1819.68,0
300,-300,-1887.6,0
300,-300,-1940.22,0
300,-300,-1968.8,0
300,-300,-1965.64,0
300,-300,-1928.63,0
300,-300,-1851.57,0
300,-300,-1735.48,0
300,-300,-1581.05,0
300,-300,-1393.95,0
300,-300,-1180.97,0
300,-300,-951.56,0
300,-300,-715.91,0
300,-300,-485.93,0
300,-300,-271.32,0
300,-300,-83.08,0
300,-300,74.28,0
300,-300,190.51,0
300,-300,270.04,0
300,-300,311.41,0
300,-300,316.46,0
300,-300,288.61,0
300,-300,232.51,0
300,-300,152.29,0
300,-300,51.16,0
300,-300,-70.78,0
300,-300,-213.34,0
300,-300,-376.85,0
300,-300,-564.33,0
300,-300,-776.08,0
300,-300,-1011.03,0
300,-300,-1266.24,0
300,-300,-1535.5,0
300,-300,-1811.26,0
300,-300,-2084.12,0
300,-300,-2345.12,0
300,-300,-2585.16,0
300,-300,-2798.18,0
300,-300,-2979.08,0
300,-300,-3126.64,0
300,-300,-3241.73,0
300,-300,-3327.08,0
300,-300,-3386.49,0
300,-300,-3423.31,0
300,-300,-3440.68,0
300,-300,-3438.78,0
300,-300,-3416.85,0
300,-300,-3370.66,0
300,-300,-3299.75,0
300,-300,-3202.05,0
300,-300,-3076.44,0
300,-300,-2925.34,0
300,-300,-2752.14,0
300,-300,-2564.38,0
300,-300,-2355.95,0
300,-300,-2147.7,0
300,-300,-1944.62,0
300,-300,-1756.57,0
300,-300,-1589.95,0
300,-300,-1452.23,0
300,-300,-1347.26,0
300,-300,-1277.5,0
300,-300,-1242.47,0
300,-300,-1240.22,0
300,-300,-1267.38,0
300,-300,-1315.88,0
300,-300,-1378.24,0
300,-300,-1444.03,0
300,-300,-1503.66,0
300,-300,-1547.4,0
300,-300,-1564.55,0
300,-300,-1546.75,0
300,-300,-1486.8,0
300,-300,-1381.8,0
300,-300,-1231.31,0
300,-300,-1038.87,0
300,-300,-812.95,0
300,-300,-564.7,0
300,-300,-307.46,0
300,-300,-55.44,0
300,-300,178.73,0
300,-300,383.86,0
300,-300,552.85,0
300,-300,680.05,0
300,-300,763.81,0
300,-300,804.43,0
300,-300,809.67,0
300,-300,780.84,0
300,-300,722.97,0
300,-300,639.22,0
300,-300,532.04,0
300,-300,400.71,0
300,-300,244.15,0
300,-300,59.65,0
300,-300,-153.93,0
300,-300,-398.93,0
300,-300,-668.87,0
300,-300,-961.9,0
300,-300,-1269.78,0
300,-300,-1582.17,0
300,-300,-1887.77,0
300,-300,-2176.75,0
300,-300,-2439.7,0
300,-300,-2671.66,0
300,-300,-2869.66,0
300,-300,-3034.86,0
300,-300,-3168.39,0
300,-300,-3275.84,0
300,-300,-3360.68,0
300,-300,-3426.06,0
300,-300,-3471.64,0
300,-300,-3497.13,0
300,-300,-3498.48,0
300,-300,-3472.66,0
300,-300,-3417.99,0
300,-300,-3332,0
300,-300,-3215.82,0
300,-300,-3075.76,0
300,-300,-2919.82,0
300,-300,-2759.39,0
300,-300,-2605.08,0
300,-300,-2467.69,0
300,-300,-2355.21,0
300,-300,-2272.85,0
300,-300,-2213.43,0
300,-300,-2183.4,0
300,-300,-2173.04,0
300,-300,-2174.47,0
300,-300,-2179.12,0
300,-300,-2180.13,0
300,-300,-2171.58,0
300,-300,-2151.74,0
300,-300,-2120.28,0
300,-300,-2080.07,0
300,-300,-2035.7,0
300,-300,-1988.11,0
300,-300,-1940.16,0
300,-300,-1891.64,0
300,-300,-1839.25,0
300,-300,-1778.11,0
300,-300,-1700.66,0
300,-300,-1601.71,0
300,-300,-1475.59,0
300,-300,-1321.32,0
300,-300,-1136.3,0
300,-300,-939.46,0
300,-300,-727.08,0
300,-300,-511.86,0
300,-300,-304.74,0
300,-300,-117.97,0
300,-300,40.23,0
300,-300,163.76,0
300,-300,251.86,0
300,-300,305.25,0
300,-300,327.32,0
300,-300,324.15,0
300,-300,298.38,0
300,-300,251.62,0
300,-300,184.46,0
300,-300,93.92,0
300,-300,-23.42,0
300,-300,-172.92,0
300,-300,-357.55,0
300,-300,-579.71,0
300,-300,-836.84,0
300,-300,-1123.57,0
300,-300,-1431,0
300,-300,-1747.86,0
300,-300,-2061.32,0
300,-300,-2359.48,0
300,-300,-2631.81,0
300,-300,-2871.63,0
300,-300,-3075.28,0
300,-300,-3244.35,0
300,-300,-3379.73,0
300,-300,-3484.85,0
300,-300,-3563.91,0
300,-300,-3620.68,0
300,-300,-3656.03,0
300,-300,-3668.69,0
300,-300,-3654.75,0
300,-300,-3611.14,0
300,-300,-3533.13,0
300,-300,-3419.94,0
300,-300,-3271.01,0
300,-300,-3092.06,0
300,-300,-2889.81,0
300,-300,-2675.51,0
300,-300,-2460.49,0
300,-300,-2256.55,0
300,-300,-2073.38,0
300,-300,-1919.19,0
300,-300,-1797.06,0
300,-300,-1705.07,0
300,-300,-1643.69,0
300,-300,-1606.13,0
300,-300,-1584.92,0
300,-300,-1573.72,0
300,-300,-1565.86,0
300,-300,-1557.57,0
300,-300,-1545.77,0
300,-300,-1530.9,0
300,-300,-1512.16,0
300,-300,-1492.74,0
300,-300,-1470.8,0
300,-300,-1443.79,0
300,-300,-1409.59,0
300,-300,-1363.74,0
300,-300,-1299.06,0
300,-300,-1210.76,0
300,-300,-1093.2,0
300,-300,-945.8,0
300,-300,-769.18,0
300,-300,-570.8,0
300,-300,-355.49,0
300,-300,-142.63,0
300,-300,65.39,0
300,-300,255.06,0
300,-300,415.59,0
300,-300,538.5,0
300,-300,620.65,0
300,-300,660.73,0
300,-300,662.95,0
300,-300,629.38,0
300,-300,565.23,0
300,-300,474.59,0
300,-300,357.77,0
300,-300,213.9,0
300,-300,41.56,0
300,-300,-163.51,0
300,-300,-403.41,0
300,-300,-680.84,0
300,-300,-995.22,0
300,-300,-1342.01,0
300,-300,-1713.23,0
300,-300,-2098.99,0
300,-300,-2485.31,0
300,-300,-2859.02,0
300,-300,-3205.37,0
300,-300,-3513.38,0
300,-300,-3773.03,0
300,-300,-3978.5,0
300,-300,-4128.15,0
300,-300,-4221.24,0
300,-300,-4260.81,0
300,-300,-4250.67,0
300,-300,-4194.66,0
300,-300,-4098.75,0
300,-300,-3965.81,0
300,-300,-3800.23,0
300,-300,-3604.64,0
300,-300,-3384.67,0
300,-300,-3145.12,0
300,-300,-2892.93,0
300,-300,-2635.59,0
300,-300,-2382.36,0
300,-300,-2142.04,0
300,-300,-1924.17,0
300,-300,-1735.83,0
300,-300,-1583.24,0
300,-300,-1469.41,0
300,-300,-1395.54,0
300,-300,-1362,0
300,-300,-1364.33,0
300,-300,-1394.94,0
300,-300,-1448.26,0
300,-300,-1516.28,0
300,-300,-1591.31,0
300,-300,-1664.97,0
300,-300,-1730.96,0
300,-300,-1782.11,0
300,-300,-1814.36,0
300,-300,-1826.07,0
300,-300,-1812.51,0
300,-300,-1770.72,0
300,-300,-1700.83,0
300,-300,-1601.82,0
300,-300,-1474.96,0
300,-300,-1322.18,0
300,-300,-1148.87,0
300,-300,-959.3,0
300,-300,-760.95,0
300,-300,-562.41,0
300,-300,-369.76,0
300,-300,-193.03,0
300,-300,-36.16,0
300,-300,95.13,0
300,-300,194.6,0
300,-300,259.65,0
300,-300,287.48,0
300,-300,278.32,0
300,-300,232.12,0
300,-300,148.58,0
300,-300,26.95,0
300,-300,-130.26,0
300,-300,-324.78,0
300,-300,-554.79,0
300,-300,-818.12,0
300,-300,-1110.12,0
300,-300,-1425.48,0
300,-300,-1755.66,0
300,-300,-2094.74,0
300,-300,-2430.3,0
300,-300,-2755.35,0
300,-300,-3058.92,0
300,-300,-3335.32,0
300,-300,-3578.22,0
300,-300,-3784.16,0
300,-300,-3950.24,0
300,-300,-4075.22,0
300,-300,-4158,0
300,-300,-4201.14,0
300,-300,-4200.89,0
300,-300,-4159.31,0
300,-300,-4074.05,0
300,-300,-3945.83,0
300,-300,-3775.16,0
300,-300,-3564.86,0
300,-300,-3318.75,0
300,-300,-3044.33,0
300,-300,-2751.07,0
300,-300,-2446.43,0
300,-300,-2143.94,0
300,-300,-1853.25,0
300,-300,-1585.32,0
300,-300,-1348.69,0
300,-300,-1149.15,0
300,-300,-990.46,0
300,-300,-873.13,0
300,-300,-796.54,0
300,-300,-756.56,0
300,-300,-753.33,0
300,-300,-779.38,0
300,-300,-828.72,0
300,-300,-897.72,0
300,-300,-980.53,0
300,-300,-1071.4,0
300,-300,-1164.34,0
300,-300,-1252.29,0
300,-300,-1329.59,0
300,-300,-1389.11,0
300,-300,-1426.2,0
300,-300,-1435.01,0
300,-300,-1412.77,0
300,-300,-1358.79,0
300,-300,-1274.86,0
300,-300,-1164,0
300,-300,-1032.52,0
300,-300,-886.94,0
300,-300,-734.64,0
300,-300,-582.57,0
300,-300,-437.67,0
300,-300,-305.03,0
300,-300,-187.06,0
300,-300,-86.79,0
300,-300,-7.32,0
300,-300,50.65,0
300,-300,85.08,0
300,-300,94.63,0
300,-300,75.39,0
300,-300,24.72,0
300,-300,-61.67,0
300,-300,-186.93,0
300,-300,-349.59,0
300,-300,-549.48,0
300,-300,-782.92,0
300,-300,-1041.08,0
300,-300,-1313.73,0
300,-300,-1586.91,0
300,-300,-1849.23,0
300,-300,-2089.08,0
300,-300,-2297.18,0
300,-300,-2468.44,0
300,-300,-2600.32,0
300,-300,-2695.39,0
300,-300,-2758.97,0
300,-300,-2796.45,0
300,-300,-2814.59,0
300,-300,-2817.99,0
300,-300,-2810.27,0
300,-300,-2794.54,0
300,-300,-2767.31,0
300,-300,-2726.94,0
300,-300,-2669.88,0
300,-300,-2592.74,0
300,-300,-2494.76,0
300,-300,-2377.62,0
300,-300,-2245.6,0
300,-300,-2105.41,0
300,-300,-1965.41,0
300,-300,-1823.53,0
300,-300,-1697.24,0
300,-300,-1587.14,0
300,-300,-1499.69,0
300,-300,-1435.76,0
300,-300,-1395.14,0
300,-300,-1375.4,0
300,-300,-1374.24,0
300,-300,-1387.94,0
300,-300,-1413.91,0
300,-300,-1450.34,0
300,-300,-1495.37,0
300,-300,-1544.54,0
300,-300,-1599,0
300,-300,-1654.95,0
300,-300,-1708.94,0
300,-300,-1755.99,0
300,-300,-1790.44,0
300,-300,-1805.9,0
300,-300,-1797.74,0
300,-300,-1761.6,0
300,-300,-1693.83,0
300,-300,-1598.73,0
300,-300,-1478.07,0
300,-300,-1338,0
300,-300,-1186.42,0
300,-300,-1031.86,0
300,-300,-882.93,0
300,-300,-746.29,0
300,-300,-629.02,0
300,-300,-532.34,0
300,-300,-458.47,0
300,-300,-402.68,0
300,-300,-365.82,0
300,-300,-345.53,0
300,-300,-340.52,0
300,-300,-350.7,0
300,-300,-377.92,0
300,-300,-425.79,0
300,-300,-500.45,0
300,-300,-604.28,0
300,-300,-741.45,0
300,-300,-912.18,0
300,-300,-1115.24,0
300,-300,-1345.45,0
300,-300,-1595.47,0
300,-300,-1855.8,0
300,-300,-2116.96,0
300,-300,-2369.5,0
300,-300,-2607.35,0
300,-300,-2823.25,0
300,-300,-3015.76,0
300,-300,-3183.16,0
300,-300,-3328.85,0
300,-300,-3451.28,0
300,-300,-3552.16,0
300,-300,-3630.08,0
300,-300,-3683.99,0
300,-300,-3709.22,0
300,-300,-3703.5,0
300,-300,-3661.3,0
300,-300,-3581.11,0
300,-300,-3462.64,0
300,-300,-3309.29,0
300,-300,-3125.52,0
300,-300,-2920.72,0
300,-300,-2704.61,0
300,-300,-2488.63,0
300,-300,-2282.91,0
300,-300,-2090.65,0
300,-300,-1926.28,0
300,-300,-1790.15,0
300,-300,-1683.76,0
300,-300,-1606.27,0
300,-300,-1553.22,0
300,-300,-1520.39,0
300,-300,-1501.87,0
300,-300,-1492.78,0
300,-300,-1487.92,0
300,-300,-1483.84,0
300,-300,-1477.69,0
300,-300,-1463.49,0
300,-300,-1440.86,0
300,-300,-1406.92,0
300,-300,-1357.57,0
300,-300,-1290.84,0
300,-300,-1204.28,0
300,-300,-1096.74,0
300,-300,-968.88,0
300,-300,-823.25,0
300,-300,-660.9,0
300,-300,-497.89,0
300,-300,-331.65,0
300,-300,-170.83,0
300,-300,-22.25,0
300,-300,107.52,0
300,-300,213.66,0
300,-300,293.48,0
300,-300,344.78,0
300,-300,369.35,0
300,-300,367.46,0
300,-300,340.97,0
300,-300,290.3,0
300,-300,214.73,0
300,-300,113.76,0
300,-300,-14.93,0
300,-300,-172.75,0
300,-300,-360.91,0
300,-300,-580.59,0
300,-300,-827.86,0
300,-300,-1098.86,0
300,-300,-1386.66,0
300,-300,-1683.17,0
300,-300,-1978.31,0
300,-300,-2262.59,0
300,-300,-2527.05,0
300,-300,-2765.1,0
300,-300,-2972.07,0
300,-300,-3145.96,0
300,-300,-3286.22,0
300,-300,-3392.27,0
300,-300,-3467.49,0
300,-300,-3513.23,0
300,-300,-3530.92,0
300,-300,-3520.69,0
300,-300,-3482.75,0
300,-300,-3417.17,0
300,-300,-3324.2,0
300,-300,-3206.59,0
300,-300,-3067.66,0
300,-300,-2911.42,0
300,-300,-2746.99,0
300,-300,-2582.37,0
300,-300,-2426.28,0
300,-300,-2286.24,0
300,-300,-2167.79,0
300,-300,-2074.05,0
300,-300,-2004.83,0
300,-300,-1948.67,0
300,-300,-1908.71,0
300,-300,-1872.67,0
300,-300,-1834.87,0
300,-300,-1787.75,0
300,-300,-1728.03,0
300,-300,-1652.28,0
300,-300,-1564.19,0
300,-300,-1468.02,0
300,-300,-1370.49,0
300,-300,-1277.09,0
300,-300,-1194.17,0
300,-300,-1124.37,0
300,-300,-1069.41,0
300,-300,-1027.2,0
300,-300,-992.85,0
300,-300,-959.56,0
300,-300,-920.52,0
300,-300,-869.36,0
300,-300,-802.35,0
300,-300,-716.88,0
300,-300,-613.01,0
300,-300,-501.94,0
300,-300,-382.49,0
300,-300,-263.68,0
300,-300,-155.14,0
300,-300,-63.35,0
300,-300,6.23,0
300,-300,51.73,0
300,-300,71.13,0
300,-300,67.88,0
300,-300,43.35,0
300,-300,0.24,0
300,-300,-60.26,0
300,-300,-138.27,0
300,-300,-235.42,0
300,-300,-353.44,0
300,-300,-495.47,0
300,-300,-662.8,0
300,-300,-857.04,0
300,-300,-1076.15,0
300,-300,-1316.88,0
300,-300,-1572.92,0
300,-300,-1837.32,0
300,-300,-2101.04,0
300,-300,-2355.91,0
300,-300,-2594.11,0
300,-300,-2810.46,0
300,-300,-3001.09,0
300,-300,-3164.84,0
300,-300,-3302.2,0
300,-300,-3412.78,0
300,-300,-3499.91,0
300,-300,-3564.1,0
300,-300,-3604.96,0
300,-300,-3621.73,0
300,-300,-3611.59,0
300,-300,-3572.2,0
300,-300,-3501.42,0
300,-300,-3398.69,0
300,-300,-3266.14,0
300,-300,-3106.34,0
300,-300,-2928.7,0
300,-300,-2741.72,0
300,-300,-2556.03,0
300,-300,-2381.8,0
300,-300,-2227.77,0
300,-300,-2099.98,0
300,-300,-1992.29,0
300,-300,-1912.44,0
300,-300,-1852.61,0
300,-300,-1805.95,0
300,-300,-1765.66,0
300,-300,-1725.08,0
300,-300,-1678.37,0
300,-300,-1623.59,0
300,-300,-1560.58,0
300,-300,-1493.05,0
300,-300,-1426.18,0
300,-300,-1363.71,0
300,-300,-1311.19,0
300,-300,-1270.43,0
300,-300,-1241.37,0
300,-300,-1221.72,0
300,-300,-1205.03,0
300,-300,-1183.84,0
300,-300,-1150.42,0
300,-300,-1098.14,0
300,-300,-1022.4,0
300,-300,-921.21,0
300,-300,-793.45,0
300,-300,-652.52,0
300,-300,-496.81,0
300,-300,-337.07,0
300,-300,-183.34,0
300,-300,-44.66,0
300,-300,72.9,0
300,-300,164.95,0
300,-300,229.53,0
300,-300,266.77,0
300,-300,278.96,0
300,-300,266.32,0
300,-300,229.95,0
300,-300,169.44,0
300,-300,83.75,0
300,-300,-28.94,0
300,-300,-170.58,0
300,-300,-342.69,0
300,-300,-544.66,0
300,-300,-775.11,0
300,-300,-1027.42,0
300,-300,-1296.09,0
300,-300,-1572.1,0
300,-300,-1846.33,0
300,-300,-2109.09,0
300,-300,-2353.75,0
300,-300,-2573.31,0
300,-300,-2765.22,0
300,-300,-2927.91,0
300,-300,-3063.48,0
300,-300,-3171.84,0
300,-300,-3257.49,0
300,-300,-3321.45,0
300,-300,-3365.05,0
300,-300,-3387.36,0
300,-300,-3387.21,0
300,-300,-3361.65,0
300,-300,-3309.67,0
300,-300,-3229.56,0
300,-300,-3122.14,0
300,-300,-2988.54,0
300,-300,-2834.32,0
300,-300,-2665.53,0
300,-300,-2490.48,0
300,-300,-2317.54,0
300,-300,-2156.3,0
300,-300,-2013.61,0
300,-300,-1895.88,0
300,-300,-1807.07,0
300,-300,-1748.85,0
300,-300,-1719.43,0
300,-300,-1715.97,0
300,-300,-1732.77,0
300,-300,-1763.6,0
300,-300,-1800.91,0
300,-300,-1837.69,0
300,-300,-1866.44,0
300,-300,-1881.13,0
300,-300,-1878.72,0
300,-300,-1852.7,0
300,-300,-1801.77,0
300,-300,-1724.53,0
300,-300,-1621.51,0
300,-300,-1495.02,0
300,-300,-1347.76,0
300,-300,-1185.19,0
300,-300,-1012.95,0
300,-300,-837.89,0
300,-300,-664,0
300,-300,-506.95,0
300,-300,-362.46,0
300,-300,-237.34,0
300,-300,-135.51,0
300,-300,-59.42,0
300,-300,-10.04,0
300,-300,12.57,0
300,-300,9.43,0
300,-300,-18.64,0
300,-300,-70.96,0
300,-300,-146.73,0
300,-300,-246.75,0
300,-300,-371.31,0
300,-300,-520.02,0
300,-300,-692.38,0
300,-300,-886.28,0
300,-300,-1098.72,0
300,-300,-1325.05,0
300,-300,-1559.61,0
300,-300,-1795.23,0
300,-300,-2025.16,0
300,-300,-2242.87,0
300,-300,-2443.45,0
300,-300,-2622.67,0
300,-300,-2778.48,0
300,-300,-2910.21,0
300,-300,-3019.02,0
300,-300,-3105.94,0
300,-300,-3172.61,0
300,-300,-3221.39,0
300,-300,-3251.14,0
300,-300,-3261.38,0
300,-300,-3251.88,0
300,-300,-3220.33,0
300,-300,-3165.46,0
300,-300,-3086.06,0
300,-300,-2982.15,0
300,-300,-2855.44,0
300,-300,-2709.24,0
300,-300,-2540.16,0
300,-300,-2363.36,0
300,-300,-2183.87,0
300,-300,-2011.6,0
300,-300,-1855.73,0
300,-300,-1725.22,0
300,-300,-1626.81,0
300,-300,-1566.74,0
300,-300,-1546.32,0
300,-300,-1564.98,0
300,-300,-1619.34,0
300,-300,-1699.23,0
300,-300,-1794.32,0
300,-300,-1891.81,0
300,-300,-1977.7,0
300,-300,-2038.57,0
300,-300,-2061.94,0
300,-300,-2039.42,0
300,-300,-1965.63,0
300,-300,-1841.12,0
300,-300,-1668.93,0
300,-300,-1458.7,0
300,-300,-1222.24,0
300,-300,-973.96,0
300,-300,-728.36,0
300,-300,-499.03,0
300,-300,-297.52,0
300,-300,-132.11,0
300,-300,-7.05,0
300,-300,76.14,0
300,-300,118.34,0
300,-300,123.36,0
300,-300,96.24,0
300,-300,41.56,0
300,-300,-37.09,0
300,-300,-137.8,0
300,-300,-259.25,0
300,-300,-401.38,0
300,-300,-564.63,0
300,-300,-749.41,0
300,-300,-956.17,0
300,-300,-1179.64,0
300,-300,-1418.56,0
300,-300,-1665.93,0
300,-300,-1914.31,0
300,-300,-2155.98,0
300,-300,-2382.97,0
300,-300,-2588.55,0
300,-300,-2768.4,0
300,-300,-2920.15,0
300,-300,-3044,0
300,-300,-3141.29,0
300,-300,-3214.45,0
300,-300,-3266.17,0
300,-300,-3298.33,0
300,-300,-3311.12,0
300,-300,-3304.18,0
300,-300,-3274.55,0
300,-300,-3220.16,0
300,-300,-3136.07,0
300,-300,-3020.11,0
300,-300,-2870.53,0
300,-300,-2689.15,0
300,-300,-2480.55,0
300,-300,-2252.21,0
300,-300,-2014.47,0
300,-300,-1779.58,0
300,-300,-1560.15,0
300,-300,-1369.02,0
300,-300,-1217.57,0
300,-300,-1112.35,0
300,-300,-1057.08,0
300,-300,-1050.98,0
300,-300,-1088.26,0
300,-300,-1159.5,0
300,-300,-1251.16,0
300,-300,-1348.88,0
300,-300,-1437.26,0
300,-300,-1501.8,0
300,-300,-1531.96,0
300,-300,-1519.29,0
300,-300,-1457.78,0
300,-300,-1349.55,0
300,-300,-1199.45,0
300,-300,-1015.16,0
300,-300,-807.99,0
300,-300,-591.07,0
300,-300,-377.2,0
300,-300,-179.17,0
300,-300,-6.88,0
300,-300,133.75,0
300,-300,231.07,0
300,-300,291.71,0
300,-300,316.02,0
300,-300,306.28,0
300,-300,266.07,0
300,-300,199.47,0
300,-300,110.32,0
300,-300,1.34,0
300,-300,-125.47,0
300,-300,-270.51,0
300,-300,-431.56,0
300,-300,-612.46,0
300,-300,-811.35,0
300,-300,-1028.61,0
300,-300,-1261.26,0
300,-300,-1505.71,0
300,-300,-1756.77,0
300,-300,-2008.83,0
300,-300,-2255,0
300,-300,-2488.88,0
300,-300,-2705.72,0
300,-300,-2901.75,0
300,-300,-3074.11,0
300,-300,-3222.75,0
300,-300,-3348.06,0
300,-300,-3450.96,0
300,-300,-3531.99,0
300,-300,-3594.3,0
300,-300,-3634.81,0
300,-300,-3653.5,0
300,-300,-3647.6,0
300,-300,-3615.61,0
300,-300,-3556.13,0
300,-300,-3469.35,0
300,-300,-3356.1,0
300,-300,-3219.39,0
300,-300,-3063.16,0
300,-300,-2883.58,0
300,-300,-2696,0
300,-300,-2505.56,0
300,-300,-2318.91,0
300,-300,-2144.81,0
300,-300,-1989.28,0
300,-300,-1858.3,0
300,-300,-1755.78,0
300,-300,-1684.27,0
300,-300,-1643.3,0
300,-300,-1633.22,0
300,-300,-1647.73,0
300,-300,-1681.05,0
300,-300,-1724.12,0
300,-300,-1768.14,0
300,-300,-1802.3,0
300,-300,-1816.81,0
300,-300,-1802.33,0
300,-300,-1752.46,0
300,-300,-1662.58,0
300,-300,-1532.31,0
300,-300,-1364.84,0
300,-300,-1168.58,0
300,-300,-952.48,0
300,-300,-729.47,0
300,-300,-510.83,0
300,-300,-308.63,0
300,-300,-132.2,0
300,-300,11.42,0
300,-300,118.54,0
300,-300,187.72,0
300,-300,221.4,0
300,-300,224.1,0
300,-300,199.76,0
300,-300,152.26,0
300,-300,85.06,0
300,-300,-1.1,0
300,-300,-106.2,0
300,-300,-233.07,0
300,-300,-384.32,0
300,-300,-562.1,0
300,-300,-767.51,0
300,-300,-998.52,0
300,-300,-1252.29,0
300,-300,-1522.57,0
300,-300,-1800.86,0
300,-300,-2077.55,0
300,-300,-2343.11,0
300,-300,-2589.39,0
300,-300,-2810.46,0
300,-300,-3002.72,0
300,-300,-3164.97,0
300,-300,-3298.97,0
300,-300,-3406.49,0
300,-300,-3491.04,0
300,-300,-3554.37,0
300,-300,-3597.31,0
300,-300,-3618.63,0
300,-300,-3616.17,0
300,-300,-3587.62,0
300,-300,-3528.43,0
300,-300,-3436.59,0
300,-300,-3311.37,0
300,-300,-3154.1,0
300,-300,-2970.07,0
300,-300,-2765.15,0
300,-300,-2550.34,0
300,-300,-2335.38,0
300,-300,-2132.14,0
300,-300,-1948.83,0
300,-300,-1797.69,0
300,-300,-1682.34,0
300,-300,-1606.41,0
300,-300,-1568.19,0
300,-300,-1564.31,0
300,-300,-1586.52,0
300,-300,-1626.49,0
300,-300,-1673.94,0
300,-300,-1718.06,0
300,-300,-1750.74,0
300,-300,-1763.67,0
300,-300,-1748.1,0
300,-300,-1702.61,0
300,-300,-1624.48,0
300,-300,-1515.25,0
300,-300,-1376.82,0
300,-300,-1214.73,0
300,-300,-1035.26,0
300,-300,-846.05,0
300,-300,-654.19,0
300,-300,-466.65,0
300,-300,-299.19,0
300,-300,-149.24,0
300,-300,-21.94,0
300,-300,78.03,0
300,-300,149.02,0
300,-300,189.31,0
300,-300,200.03,0
300,-300,181.05,0
300,-300,134.56,0
300,-300,61.22,0
300,-300,-36.18,0
300,-300,-159.07,0
300,-300,-306.68,0
300,-300,-478.91,0
300,-300,-674.26,0
300,-300,-890.36,0
300,-300,-1124.21,0
300,-300,-1372.1,0
300,-300,-1626.54,0
300,-300,-1881.48,0
300,-300,-2130.07,0
300,-300,-2365.09,0
300,-300,-2580.29,0
300,-300,-2772.35,0
300,-300,-2938.09,0
300,-300,-3076.95,0
300,-300,-3189.07,0
300,-300,-3277.46,0
300,-300,-3342.07,0
300,-300,-3385.13,0
300,-300,-3406.55,0
300,-300,-3406.6,0
300,-300,-3384.11,0
300,-300,-3337.84,0
300,-300,-3266.19,0
300,-300,-3169.02,0
300,-300,-3046.89,0
300,-300,-2893.81,0
300,-300,-2718.63,0
300,-300,-2524.3,0
300,-300,-2318.2,0
300,-300,-2108.96,0
300,-300,-1906.39,0
300,-300,-1720.41,0
300,-300,-1561.13,0
300,-300,-1437.09,0
300,-300,-1353.86,0
300,-300,-1317.38,0
300,-300,-1324.63,0
300,-300,-1371.29,0
300,-300,-1449.3,0
300,-300,-1547.33,0
300,-300,-1650.83,0
300,-300,-1745.48,0
300,-300,-1815.58,0
300,-300,-1849.2,0
300,-300,-1835.91,0
300,-300,-1770.7,0
300,-300,-1653.02,0
300,-300,-1485.62,0
300,-300,-1278.7,0
300,-300,-1044.76,0
300,-300,-797.94,0
300,-300,-554.19,0
300,-300,-327.09,0
300,-300,-129.49,0
300,-300,31.19,0
300,-300,149.61,0
300,-300,226.36,0
300,-300,261.19,0
300,-300,261.75,0
300,-300,232.68,0
300,-300,179.5,0
300,-300,105.75,0
300,-300,14.85,0
300,-300,-92.7,0
300,-300,-218.49,0
300,-300,-363.14,0
300,-300,-529.42,0
300,-300,-717.24,0
300,-300,-926.54,0
300,-300,-1155.01,0
300,-300,-1396.88,0
300,-300,-1645.82,0
300,-300,-1892.63,0
300,-300,-2129.77,0
300,-300,-2350.88,0
300,-300,-2549.02,0
300,-300,-2720.98,0
300,-300,-2867.04,0
300,-300,-2986.27,0
300,-300,-3081.35,0
300,-300,-3154.36,0
300,-300,-3206.97,0
300,-300,-3239.48,0
300,-300,-3251.46,0
300,-300,-3242.6,0
300,-300,-3208.86,0
300,-300,-3148.02,0
300,-300,-3059.45,0
300,-300,-2944.19,0
300,-300,-2805.59,0
300,-300,-2648.34,0
300,-300,-2479.89,0
300,-300,-2308.56,0
300,-300,-2143.45,0
300,-300,-1985.04,0
300,-300,-1849.32,0
300,-300,-1737.45,0
300,-300,-1654.13,0
300,-300,-1599.53,0
300,-300,-1573.09,0
300,-300,-1571.61,0
300,-300,-1591.85,0
300,-300,-1628.75,0
300,-300,-1677.72,0
300,-300,-1732.97,0
300,-300,-1789.48,0
300,-300,-1838.97,0
300,-300,-1876.94,0
300,-300,-1896.1,0
300,-300,-1890.71,0
300,-300,-1855.36,0
300,-300,-1786.55,0
300,-300,-1682.82,0
300,-300,-1545.15,0
300,-300,-1378.23,0
300,-300,-1186.58,0
300,-300,-987.03,0
300,-300,-784.37,0
300,-300,-589.24,0
300,-300,-412.15,0
300,-300,-261.11,0
300,-300,-141.99,0
300,-300,-56.68,0
300,-300,-6.82,0
300,-300,12.4,0
300,-300,2.87,0
300,-300,-27.79,0
300,-300,-78.91,0
300,-300,-147.74,0
300,-300,-234.14,0
300,-300,-337.86,0
300,-300,-462.15,0
300,-300,-607.83,0
300,-300,-778.58,0
300,-300,-972.32,0
300,-300,-1187.81,0
300,-300,-1419.57,0
300,-300,-1661.09,0
300,-300,-1903.73,0
300,-300,-2139.27,0
300,-300,-2358.56,0
300,-300,-2556.07,0
300,-300,-2726.82,0
300,-300,-2870.88,0
300,-300,-2987.15,0
300,-300,-3078.65,0
300,-300,-3147.41,0
300,-300,-3196.5,0
300,-300,-3226.66,0
300,-300,-3237.8,0
300,-300,-3228.31,0
300,-300,-3196.34,0
300,-300,-3138.86,0
300,-300,-3055.95,0
300,-300,-2947.94,0
300,-300,-2817.85,0
300,-300,-2671.7,0
300,-300,-2517.25,0
300,-300,-2362.63,0
300,-300,-2216.24,0
300,-300,-2085.6,0
300,-300,-1976.32,0
300,-300,-1890.69,0
300,-300,-1823.95,0
300,-300,-1779.76,0
300,-300,-1749.53,0
300,-300,-1728.9,0
300,-300,-1712.54,0
300,-300,-1694.86,0
300,-300,-1673.1,0
300,-300,-1645.68,0
300,-300,-1612.54,0
300,-300,-1575.23,0
300,-300,-1534.78,0
300,-300,-1492.21,0
300,-300,-1445.44,0
300,-300,-1394.29,0
300,-300,-1335.64,0
300,-300,-1265,0
300,-300,-1178.81,0
300,-300,-1073.96,0
300,-300,-950.18,0
300,-300,-808.75,0
300,-300,-653.42,0
300,-300,-488.09,0
300,-300,-329.02,0
300,-300,-174.91,0
300,-300,-36.4,0
300,-300,79.77,0
300,-300,167.5,0
300,-300,224.98,0
300,-300,251.24,0
300,-300,246.61,0
300,-300,214.85,0
300,-300,158.33,0
300,-300,77.79,0
300,-300,-25.88,0
300,-300,-154.94,0
300,-300,-309.94,0
300,-300,-493.62,0
300,-300,-705.91,0
300,-300,-946.79,0
300,-300,-1213.92,0
300,-300,-1500.4,0
300,-300,-1799.57,0
300,-300,-2101.46,0
300,-300,-2395.51,0
300,-300,-2673.33,0
300,-300,-2926.4,0
300,-300,-3149.74,0
300,-300,-3339.58,0
300,-300,-3496.08,0
300,-300,-3620.04,0
300,-300,-3715.5,0
300,-300,-3782.96,0
300,-300,-3827.13,0
300,-300,-3848.03,0
300,-300,-3846.33,0
300,-300,-3819.34,0
300,-300,-3765.77,0
300,-300,-3683.23,0
300,-300,-3572.7,0
300,-300,-3434.57,0
300,-300,-3275.23,0
300,-300,-3099.47,0
300,-300,-2917.61,0
300,-300,-2737.67,0
300,-300,-2569.04,0
300,-300,-2418.15,0
300,-300,-2289.84,0
300,-300,-2184.49,0
300,-300,-2095.16,0
300,-300,-2023.88,0
300,-300,-1962.84,0
300,-300,-1904.27,0
300,-300,-1843.84,0
300,-300,-1777.33,0
300,-300,-1703.94,0
300,-300,-1624.59,0
300,-300,-1542.58,0
300,-300,-1462.18,0
300,-300,-1388.37,0
300,-300,-1323.24,0
300,-300,-1269.14,0
300,-300,-1223.59,0
300,-300,-1183.43,0
300,-300,-1142.57,0
300,-300,-1094.32,0
300,-300,-1032.02,0
300,-300,-950.97,0
300,-300,-848.74,0
300,-300,-725.65,0
300,-300,-584.75,0
300,-300,-431.36,0
300,-300,-278.57,0
300,-300,-129.21,0
300,-300,6.53,0
300,-300,120.65,0
300,-300,208.24,0
300,-300,266.31,0
300,-300,294.79,0
300,-300,293.16,0
300,-300,264.85,0
300,-300,210.87,0
300,-300,132.36,0
300,-300,28.19,0
300,-300,-101.49,0
300,-300,-258.9,0
300,-300,-443.78,0
300,-300,-656.37,0
300,-300,-893.23,0
300,-300,-1150.54,0
300,-300,-1420.95,0
300,-300,-1696.19,0
300,-300,-1967.29,0
300,-300,-2225.61,0
300,-300,-2462.15,0
300,-300,-2672.56,0
300,-300,-2852.02,0
300,-300,-3000.53,0
300,-300,-3118.45,0
300,-300,-3208.8,0
300,-300,-3275.35,0
300,-300,-3318.51,0
300,-300,-3341.66,0
300,-300,-3345.49,0
300,-300,-3328.31,0
300,-300,-3288.62,0
300,-300,-3223.86,0
300,-300,-3134.05,0
300,-300,-3019.1,0
300,-300,-2882.47,0
300,-300,-2728.4,0
300,-300,-2562.39,0
300,-300,-2392.77,0
300,-300,-2227.65,0
300,-300,-2073.69,0
300,-300,-1937.75,0
300,-300,-1823.24,0
300,-300,-1732.16,0
300,-300,-1665.57,0
300,-300,-1621.58,0
300,-300,-1596.55,0
300,-300,-1586.81,0
300,-300,-1587.52,0
300,-300,-1594.77,0
300,-300,-1604.52,0
300,-300,-1613.18,0
300,-300,-1616.79,0
300,-300,-1612.96,0
300,-300,-1599.94,0
300,-300,-1572.8,0
300,-300,-1528.84,0
300,-300,-1466.01,0
300,-300,-1381.2,0
300,-300,-1274.61,0
300,-300,-1147.08,0
300,-300,-1002.23,0
300,-300,-844.67,0
300,-300,-681.05,0
300,-300,-519.13,0
300,-300,-365.19,0
300,-300,-232.56,0
300,-300,-120.16,0
300,-300,-33.62,0
300,-300,23.43,0
300,-300,50.37,0
300,-300,48.5,0
300,-300,20.3,0
300,-300,-31.34,0
300,-300,-104.58,0
300,-300,-198.53,0
300,-300,-312.19,0
300,-300,-447.51,0
300,-300,-605.33,0
300,-300,-786.64,0
300,-300,-990.95,0
300,-300,-1216.1,0
300,-300,-1457.83,0
300,-300,-1710.59,0
300,-300,-1965.81,0
300,-300,-2215.76,0
300,-300,-2451.78,0
300,-300,-2667,0
300,-300,-2855.83,0
300,-300,-3015.15,0
300,-300,-3144.08,0
300,-300,-3243.09,0
300,-300,-3314.57,0
300,-300,-3361.6,0
300,-300,-3386.07,0
300,-300,-3389.74,0
300,-300,-3371.36,0
300,-300,-3332.18,0
300,-300,-3270.51,0
300,-300,-3185.74,0
300,-300,-3077.07,0
300,-300,-2946.94,0
300,-300,-2798.47,0
300,-300,-2631,0
300,-300,-2452.75,0
300,-300,-2269.75,0
300,-300,-2088.26,0
300,-300,-1915.24,0
300,-300,-1756.99,0
300,-300,-1619.18,0
300,-300,-1505.03,0
300,-300,-1418.02,0
300,-300,-1358.45,0
300,-300,-1329.54,0
300,-300,-1325.56,0
300,-300,-1344.63,0
300,-300,-1381.85,0
300,-300,-1430.08,0
300,-300,-1482.3,0
300,-300,-1530.17,0
300,-300,-1564.37,0
300,-300,-1576.83,0
300,-300,-1560.25,0
300,-300,-1511.24,0
300,-300,-1425.06,0
300,-300,-1303.37,0
300,-300,-1149.99,0
300,-300,-972.56,0
300,-300,-780.66,0
300,-300,-586.07,0
300,-300,-399.21,0
300,-300,-230.98,0
300,-300,-88.99,0
300,-300,20,0
300,-300,93.55,0
300,-300,133.11,0
300,-300,140.7,0
300,-300,119.87,0
300,-300,75.16,0
300,-300,10.13,0
300,-300,-72.79,0
300,-300,-173.29,0
300,-300,-292.69,0
300,-300,-433.39,0
300,-300,-599.51,0
300,-300,-790.76,0
300,-300,-1009.82,0
300,-300,-1254.4,0
300,-300,-1519.18,0
300,-300,-1796.93,0
300,-300,-2077.9,0
300,-300,-2351.97,0
300,-300,-2609.05,0
300,-300,-2841.95,0
300,-300,-3044.8,0
300,-300,-3214.87,0
300,-300,-3352.2,0
300,-300,-3459.07,0
300,-300,-3538.48,0
300,-300,-3594.03,0
300,-300,-3627.08,0
300,-300,-3638.99,0
300,-300,-3630.35,0
300,-300,-3597.39,0
300,-300,-3537.5,0
300,-300,-3448.95,0
300,-300,-3329.65,0
300,-300,-3182.66,0
300,-300,-3011.46,0
300,-300,-2824.16,0
300,-300,-2629.08,0
300,-300,-2437.19,0
300,-300,-2244.15,0
300,-300,-2068.87,0
300,-300,-1912.43,0
300,-300,-1778.57,0
300,-300,-1666.68,0
300,-300,-1575.91,0
300,-300,-1503.47,0
300,-300,-1446.16,0
300,-300,-1400.88,0
300,-300,-1365.72,0
300,-300,-1342.14,0
300,-300,-1327.03,0
300,-300,-1319.99,0
300,-300,-1320.23,0
300,-300,-1325.04,0
300,-300,-1330.31,0
300,-300,-1330.12,0
300,-300,-1317.37,0
300,-300,-1284.77,0
300,-300,-1225.81,0
300,-300,-1136.06,0
300,-300,-1012.55,0
300,-300,-862.59,0
300,-300,-688.91,0
300,-300,-500.81,0
300,-300,-309.11,0
300,-300,-126.37,0
300,-300,36.63,0
300,-300,170.86,0
300,-300,269.8,0
300,-300,330.47,0
300,-300,352.88,0
300,-300,343.4,0
300,-300,303.16,0
300,-300,237.47,0
300,-300,150.11,0
300,-300,42.85,0
300,-300,-84.34,0
300,-300,-234.03,0
300,-300,-409.14,0
300,-300,-612.72,0
300,-300,-845.75,0
300,-300,-1106.2,0
300,-300,-1391.35,0
300,-300,-1693.84,0
300,-300,-2003.41,0
300,-300,-2309.53,0
300,-300,-2600.78,0
300,-300,-2867.88,0
300,-300,-3104.76,0
300,-300,-3306.14,0
300,-300,-3472.3,0
300,-300,-3603.22,0
300,-300,-3702.55,0
300,-300,-3773.81,0
300,-300,-3819.68,0
300,-300,-3840.81,0
300,-300,-3836.87,0
300,-300,-3805.19,0
300,-300,-3745.23,0
300,-300,-3652.28,0
300,-300,-3526.47,0
300,-300,-3370.29,0
300,-300,-3188.05,0
300,-300,-2988.93,0
300,-300,-2784.36,0
300,-300,-2585.85,0
300,-300,-2405.79,0
300,-300,-2252.84,0
300,-300,-2121.41,0
300,-300,-2023.91,0
300,-300,-1954.18,0
300,-300,-1905.2,0
300,-300,-1868.96,0
300,-300,-1835.98,0
300,-300,-1798.91,0
300,-300,-1751.48,0
300,-300,-1691.75,0
300,-300,-1620.23,0
300,-300,-1542.6,0
300,-300,-1462.52,0
300,-300,-1384.56,0
300,-300,-1315,0
300,-300,-1256.08,0
300,-300,-1206,0
300,-300,-1161.82,0
300,-300,-1116.34,0
300,-300,-1062.73,0
300,-300,-993.5,0
300,-300,-903.68,0
300,-300,-787.69,0
300,-300,-659.02,0
300,-300,-511.69,0
300,-300,-354.32,0
300,-300,-197.37,0
300,-300,-51.87,0
300,-300,72.77,0
300,-300,169.52,0
300,-300,233.47,0
300,-300,264.83,0
300,-300,264.72,0
300,-300,239.24,0
300,-300,189.8,0
300,-300,119.67,0
300,-300,30.53,0
300,-300,-78.32,0
300,-300,-208.79,0
300,-300,-364.29,0
300,-300,-548.91,0
300,-300,-763,0
300,-300,-1006.64,0
300,-300,-1275.64,0
300,-300,-1562.97,0
300,-300,-1859.12,0
300,-300,-2153.2,0
300,-300,-2433.63,0
300,-300,-2691.16,0
300,-300,-2917.81,0
300,-300,-3110.36,0
300,-300,-3266.8,0
300,-300,-3389.65,0
300,-300,-3481.71,0
300,-300,-3548.09,0
300,-300,-3592.79,0
300,-300,-3618.22,0
300,-300,-3624.46,0
300,-300,-3609.72,0
300,-300,-3570.34,0
300,-300,-3503.94,0
300,-300,-3406.63,0
300,-300,-3278.09,0
300,-300,-3120.07,0
300,-300,-2939.07,0
300,-300,-2743.13,0
300,-300,-2542.17,0
300,-300,-2347.05,0
300,-300,-2168.51,0
300,-300,-2013.75,0
300,-300,-1881.27,0
300,-300,-1781.14,0
300,-300,-1707.74,0
300,-300,-1657.48,0
300,-300,-1623.77,0
300,-300,-1599.76,0
300,-300,-1579.36,0
300,-300,-1557.71,0
300,-300,-1531.93,0
300,-300,-1501.5,0
300,-300,-1466.98,0
300,-300,-1430.09,0
300,-300,-1389.49,0
300,-300,-1347.48,0
300,-300,-1301.86,0
300,-300,-1249.51,0
300,-300,-1186.76,0
300,-300,-1109.02,0
300,-300,-1012.91,0
300,-300,-896.48,0
300,-300,-760.96,0
300,-300,-606.5,0
300,-300,-450.46,0
300,-300,-289.35,0
300,-300,-133.68,0
300,-300,6.55,0
300,-300,122.62,0
300,-300,208.15,0
300,-300,259.52,0
300,-300,275.09,0
300,-300,257.91,0
300,-300,210.25,0
300,-300,136.97,0
300,-300,39.75,0
300,-300,-79.41,0
300,-300,-219.45,0
300,-300,-380.75,0
300,-300,-563.7,0
300,-300,-769.24,0
300,-300,-997.39,0
300,-300,-1244.32,0
300,-300,-1505.75,0
300,-300,-1775.49,0
300,-300,-2044.06,0
300,-300,-2302.8,0
300,-300,-2542.9,0
300,-300,-2757.15,0
300,-300,-2939.83,0
300,-300,-3088.65,0
300,-300,-3203.95,0
300,-300,-3288.62,0
300,-300,-3344.45,0
300,-300,-3376.73,0
300,-300,-3388.18,0
300,-300,-3381.34,0
300,-300,-3356.47,0
300,-300,-3312.82,0
300,-300,-3248.01,0
300,-300,-3160.65,0
300,-300,-3048.97,0
300,-300,-2914.28,0
300,-300,-2756.6,0
300,-300,-2582.3,0
300,-300,-2396.92,0
300,-300,-2209.25,0
300,-300,-2028.39,0
300,-300,-1863.61,0
300,-300,-1723.27,0
300,-300,-1614.78,0
300,-300,-1543.42,0
300,-300,-1510.75,0
300,-300,-1514.1,0
300,-300,-1550.51,0
300,-300,-1611.34,0
300,-300,-1688.13,0
300,-300,-1769.99,0
300,-300,-1846.22,0
300,-300,-1906.08,0
300,-300,-1940.96,0
300,-300,-1945.07,0
300,-300,-1912.96,0
300,-300,-1841.76,0
300,-300,-1733.56,0
300,-300,-1591.8,0
300,-300,-1422.33,0
300,-300,-1233.05,0
300,-300,-1033.13,0
300,-300,-832.44,0
300,-300,-640.81,0
300,-300,-465.97,0
300,-300,-312.95,0
300,-300,-192.72,0
300,-300,-99.23,0
300,-300,-33.94,0
300,-300,2.71,0
300,-300,13.24,0
300,-300,-0.45,0
300,-300,-35.24,0
300,-300,-90.07,0
300,-300,-165.22,0
300,-300,-260.51,0
300,-300,-377.08,0
300,-300,-517.44,0
300,-300,-682.28,0
300,-300,-870.65,0
300,-300,-1080.32,0
300,-300,-1306.55,0
300,-300,-1542.78,0
300,-300,-1780.89,0
300,-300,-2012.74,0
300,-300,-2231.16,0
300,-300,-2428.45,0
300,-300,-2600.75,0
300,-300,-2745.55,0
300,-300,-2863.46,0
300,-300,-2955.92,0
300,-300,-3026.12,0
300,-300,-3077.03,0
300,-300,-3111.25,0
300,-300,-3130.54,0
300,-300,-3133.59,0
300,-300,-3119.54,0
300,-300,-3086.16,0
300,-300,-3030.8,0
300,-300,-2953.04,0
300,-300,-2853.07,0
300,-300,-2733.9,0
300,-300,-2600.6,0
300,-300,-2449.67,0
300,-300,-2294.9,0
300,-300,-2139.92,0
300,-300,-1992.39,0
300,-300,-1857.94,0
300,-300,-1741.14,0
300,-300,-1645.45,0
300,-300,-1572.93,0
300,-300,-1524.25,0
300,-300,-1498.65,0
300,-300,-1497.49,0
300,-300,-1514.67,0
300,-300,-1547.1,0
300,-300,-1589.23,0
300,-300,-1635.6,0
300,-300,-1678.44,0
300,-300,-1710.57,0
300,-300,-1723.82,0
300,-300,-1711.21,0
300,-300,-1666.69,0
300,-300,-1588.79,0
300,-300,-1474.54,0
300,-300,-1328.08,0
300,-300,-1154.11,0
300,-300,-963.01,0
300,-300,-763.89,0
300,-300,-569.28,0
300,-300,-388.7,0
300,-300,-231.33,0
300,-300,-103.63,0
300,-300,-10.14,0
300,-300,50.45,0
300,-300,80.08,0
300,-300,82.87,0
300,-300,61.61,0
300,-300,21.84,0
300,-300,-35.24,0
300,-300,-108.15,0
300,-300,-198.91,0
300,-300,-309.98,0
300,-300,-446.47,0
300,-300,-611.63,0
300,-300,-806.07,0
300,-300,-1030.29,0
300,-300,-1281.77,0
300,-300,-1552.49,0
300,-300,-1834.23,0
300,-300,-2116.06,0
300,-300,-2387.69,0
300,-300,-2638.9,0
300,-300,-2863.7,0
300,-300,-3057.14,0
300,-300,-3217.31,0
300,-300,-3344.8,0
300,-300,-3442.37,0
300,-300,-3512.46,0
300,-300,-3557.67,0
300,-300,-3578.44,0
300,-300,-3575.4,0
300,-300,-3546.46,0
300,-300,-3490.66,0
300,-300,-3405.65,0
300,-300,-3290.14,0
300,-300,-3147.23,0
300,-300,-2982.11,0
300,-300,-2800.91,0
300,-300,-2612.7,0
300,-300,-2427.18,0
300,-300,-2253.94,0
300,-300,-2101.12,0
300,-300,-1967.13,0
300,-300,-1864.88,0
300,-300,-1791.27,0
300,-300,-1744.22,0
300,-300,-1720.48,0
300,-300,-1714.62,0
300,-300,-1722.14,0
300,-300,-1736.85,0
300,-300,-1755.19,0
300,-300,-1773.26,0
300,-300,-1787.72,0
300,-300,-1795.59,0
300,-300,-1793.52,0
300,-300,-1778.05,0
300,-300,-1745.33,0
300,-300,-1690.49,0
300,-300,-1609.23,0
300,-300,-1497.58,0
300,-300,-1354.58,0
300,-300,-1180.98,0
300,-300,-978.09,0
300,-300,-761.64,0
300,-300,-533.69,0
300,-300,-305.14,0
300,-300,-87.82,0
300,-300,108.54,0
300,-300,274.82,0
300,-300,405.71,0
300,-300,498.16,0
300,-300,552.77,0
300,-300,569.45,0
300,-300,555.69,0
300,-300,511.58,0
300,-300,440.89,0
300,-300,345.29,0
300,-300,225.74,0
300,-300,80.5,0
300,-300,-91.07,0
300,-300,-290.25,0
300,-300,-516.24,0
300,-300,-767.81,0
300,-300,-1038.37,0
300,-300,-1323.02,0
300,-300,-1612.03,0
300,-300,-1897.38,0
300,-300,-2168.93,0
300,-300,-2420.91,0
300,-300,-2647.39,0
300,-300,-2846.89,0
300,-300,-3019.29,0
300,-300,-3166.38,0
300,-300,-3289.36,0
300,-300,-3392.04,0
300,-300,-3474.37,0
300,-300,-3536.67,0
300,-300,-3575.87,0
300,-300,-3589.84,0
300,-300,-3574.34,0
300,-300,-3527.28,0
300,-300,-3447,0
300,-300,-3337.31,0
300,-300,-3201.49,0
300,-300,-3048.64,0
300,-300,-2888.15,0
300,-300,-2731.09,0
300,-300,-2585.89,0
300,-300,-2460.65,0
300,-300,-2358.44,0
300,-300,-2280.13,0
300,-300,-2222.18,0
300,-300,-2176.36,0
300,-300,-2138,0
300,-300,-2098.02,0
300,-300,-2049.51,0
300,-300,-1989.07,0
300,-300,-1914.7,0
300,-300,-1828.51,0
300,-300,-1734.11,0
300,-300,-1637.95,0
300,-300,-1544.38,0
300,-300,-1458.84,0
300,-300,-1381.78,0
300,-300,-1313.89,0
300,-300,-1250.96,0
300,-300,-1187.61,0
300,-300,-1115.76,0
300,-300,-1029.8,0
300,-300,-924.29,0
300,-300,-797.77,0
300,-300,-650.74,0
300,-300,-485.73,0
300,-300,-317.6,0
300,-300,-146.09,0
300,-300,18.19,0
300,-300,164.57,0
300,-300,286.99,0
300,-300,380.12,0
300,-300,443.89,0
300,-300,477.85,0
300,-300,485.39,0
300,-300,467.17,0
300,-300,426.35,0
300,-300,362.27,0
300,-300,274.23,0
300,-300,159.75,0
300,-300,16.03,0
300,-300,-160.34,0
300,-300,-369.35,0
300,-300,-610.35,0
300,-300,-879.19,0
300,-300,-1169.02,0
300,-300,-1470.98,0
300,-300,-1775.33,0
300,-300,-2071.43,0
300,-300,-2351.21,0
300,-300,-2607.1,0
300,-300,-2835.48,0
300,-300,-3034.09,0
300,-300,-3204.2,0
300,-300,-3347.1,0
300,-300,-3467.09,0
300,-300,-3564.23,0
300,-300,-3641.41,0
300,-300,-3697.14,0
300,-300,-3730,0
300,-300,-3736.05,0
300,-300,-3712.84,0
300,-300,-3657.15,0
300,-300,-3569.52,0
300,-300,-3452.14,0
300,-300,-3310.93,0
300,-300,-3152.65,0
300,-300,-2986.63,0
300,-300,-2821.73,0
300,-300,-2667.17,0
300,-300,-2528.31,0
300,-300,-2409.32,0
300,-300,-2310.25,0
300,-300,-2228.75,0
300,-300,-2160.18,0
300,-300,-2101.22,0
300,-300,-2044.47,0
300,-300,-1986.06,0
300,-300,-1923.1,0
300,-300,-1854.3,0
300,-300,-1780.38,0
300,-300,-1702.87,0
300,-300,-1624.13,0
300,-300,-1545.98,0
300,-300,-1468.86,0
300,-300,-1393.96,0
300,-300,-1316.99,0
300,-300,-1235.43,0
300,-300,-1144.74,0
300,-300,-1041.41,0
300,-300,-922.76,0
300,-300,-788.88,0
300,-300,-641.22,0
300,-300,-484.35,0
300,-300,-323.66,0
300,-300,-166.3,0
300,-300,-22.8,0
300,-300,103.17,0
300,-300,205.76,0
300,-300,279.76,0
300,-300,324.37,0
300,-300,339.44,0
300,-300,327.01,0
300,-300,288.46,0
300,-300,225.93,0
300,-300,138.67,0
300,-300,27.87,0
300,-300,-109.16,0
300,-300,-272.67,0
300,-300,-464.78,0
300,-300,-683.81,0
300,-300,-928.57,0
300,-300,-1193.41,0
300,-300,-1472.2,0
300,-300,-1755.47,0
300,-300,-2035.22,0
300,-300,-2301.29,0
300,-300,-2546.15,0
300,-300,-2763.77,0
300,-300,-2951.75,0
300,-300,-3107.73,0
300,-300,-3233.89,0
300,-300,-3331.56,0
300,-300,-3404.76,0
300,-300,-3455.1,0
300,-300,-3487.58,0
300,-300,-3498.73,0
300,-300,-3490.2,0
300,-300,-3459.95,0
300,-300,-3406.76,0
300,-300,-3328.97,0
300,-300,-3227.64,0
300,-300,-3104.1,0
300,-300,-2963.35,0
300,-300,-2810.35,0
300,-300,-2640.2,0
300,-300,-2469.47,0
300,-300,-2302.25,0
300,-300,-2144.72,0
300,-300,-2003.42,0
300,-300,-1882.2,0
300,-300,-1785.28,0
300,-300,-1714,0
300,-300,-1669.42,0
300,-300,-1649.94,0
300,-300,-1654.84,0
300,-300,-1677.18,0
300,-300,-1712.09,0
300,-300,-1751.73,0
300,-300,-1788.15,0
300,-300,-1811.61,0
300,-300,-1813.96,0
300,-300,-1786.41,0
300,-300,-1723.72,0
300,-300,-1622.22,0
300,-300,-1481.85,0
300,-300,-1306.82,0
300,-300,-1104.15,0
300,-300,-884.15,0
300,-300,-659.28,0
300,-300,-441.4,0
300,-300,-242.65,0
300,-300,-72.41,0
300,-300,62.64,0
300,-300,158.83,0
300,-300,214.33,0
300,-300,234.6,0
300,-300,221.74,0
300,-300,180.84,0
300,-300,116.82,0
300,-300,32.68,0
300,-300,-69.6,0
300,-300,-190.45,0
300,-300,-331.21,0
300,-300,-494.92,0
300,-300,-683.34,0
300,-300,-895.42,0
300,-300,-1130.59,0
300,-300,-1383.99,0
300,-300,-1648.31,0
300,-300,-1914.93,0
300,-300,-2173.88,0
300,-300,-2415.3,0
300,-300,-2632.09,0
300,-300,-2818.65,0
300,-300,-2972.93,0
300,-300,-3095.56,0
300,-300,-3188.75,0
300,-300,-3257.05,0
300,-300,-3304.48,0
300,-300,-3333.94,0
300,-300,-3346.65,0
300,-300,-3341.65,0
300,-300,-3316.72,0
300,-300,-3269.93,0
300,-300,-3195.8,0
300,-300,-3092.05,0
300,-300,-2958.41,0
300,-300,-2795.35,0
300,-300,-2607.89,0
300,-300,-2401.7,0
300,-300,-2186.92,0
300,-300,-1973.62,0
300,-300,-1773.72,0
300,-300,-1598.01,0
300,-300,-1458.05,0
300,-300,-1358.27,0
300,-300,-1303.24,0
300,-300,-1292.04,0
300,-300,-1320.38,0
300,-300,-1380.23,0
300,-300,-1461.22,0
300,-300,-1550.17,0
300,-300,-1634.21,0
300,-300,-1701.03,0
300,-300,-1740.78,0
300,-300,-1741.65,0
300,-300,-1701.27,0
300,-300,-1617.28,0
300,-300,-1492.08,0
300,-300,-1331.09,0
300,-300,-1143.7,0
300,-300,-940.84,0
300,-300,-735.68,0
300,-300,-539.34,0
300,-300,-361.36,0
300,-300,-220.2,0
300,-300,-112.31,0
300,-300,-40.03,0
300,-300,-3.64,0
300,-300,-0.53,0
300,-300,-26.64,0
300,-300,-76.21,0
300,-300,-144.88,0
300,-300,-229.05,0
300,-300,-326.76,0
300,-300,-436.16,0
300,-300,-560.63,0
300,-300,-702.38,0
300,-300,-863.7,0
300,-300,-1045.97,0
300,-300,-1248.83,0
300,-300,-1469.87,0
300,-300,-1704.18,0
300,-300,-1945.05,0
300,-300,-2184,0
300,-300,-2413.09,0
300,-300,-2624.35,0
300,-300,-2812.66,0
300,-300,-2974.39,0
300,-300,-3108.46,0
300,-300,-3216.1,0
300,-300,-3299.74,0
300,-300,-3362.34,0
300,-300,-3407.91,0
300,-300,-3435.85,0
300,-300,-3445.34,0
300,-300,-3434.42,0
300,-300,-3399.51,0
300,-300,-3336.7,0
300,-300,-3242.76,0
300,-300,-3116.96,0
300,-300,-2960.47,0
300,-300,-2778.16,0
300,-300,-2565.69,0
300,-300,-2340.06,0
300,-300,-2107.95,0
300,-300,-1881.14,0
300,-300,-1669.14,0
300,-300,-1482.34,0
300,-300,-1327.98,0
300,-300,-1211.36,0
300,-300,-1135.04,0
300,-300,-1099.07,0
300,-300,-1101.76,0
300,-300,-1136.41,0
300,-300,-1195.05,0
300,-300,-1268.2,0
300,-300,-1344.73,0
300,-300,-1413.76,0
300,-300,-1464.45,0
300,-300,-1487.91,0
300,-300,-1476.64,0
300,-300,-1427.09,0
300,-300,-1337.81,0
300,-300,-1210.05,0
300,-300,-1051.59,0
300,-300,-871.77,0
300,-300,-681.02,0
300,-300,-492.57,0
300,-300,-317.04,0
300,-300,-165.34,0
300,-300,-44.14,0
300,-300,40.81,0
300,-300,90.11,0
300,-300,104.6,0
300,-300,90.75,0
300,-300,51.62,0
300,-300,-6.88,0
300,-300,-80.94,0
300,-300,-167.88,0
300,-300,-267.53,0
300,-300,-380.72,0
300,-300,-512.06,0
300,-300,-664.1,0
300,-300,-839.6,0
300,-300,-1039.13,0
300,-300,-1262.62,0
300,-300,-1505.39,0
300,-300,-1761.03,0
300,-300,-2020.41,0
300,-300,-2274.68,0
300,-300,-2514.39,0
300,-300,-2733.35,0
300,-300,-2924.64,0
300,-300,-3087.7,0
300,-300,-3220.93,0
300,-300,-3326.63,0
300,-300,-3406.94,0
300,-300,-3464.27,0
300,-300,-3500.18,0
300,-300,-3514.63,0
300,-300,-3506.15,0
300,-300,-3473.44,0
300,-300,-3413.14,0
300,-300,-3323.14,0
300,-300,-3204.27,0
300,-300,-3059.25,0
300,-300,-2893.16,0
300,-300,-2712.9,0
300,-300,-2526.86,0
300,-300,-2344.31,0
300,-300,-2173.97,0
300,-300,-2013.54,0
300,-300,-1878.78,0
300,-300,-1767.6,0
300,-300,-1680.82,0
300,-300,-1616.4,0
300,-300,-1570.97,0
300,-300,-1540.41,0
300,-300,-1521.15,0
300,-300,-1509.49,0
300,-300,-1502.98,0
300,-300,-1498.39,0
300,-300,-1493.96,0
300,-300,-1485.53,0
300,-300,-1471.96,0
300,-300,-1449.23,0
300,-300,-1413.88,0
300,-300,-1361.52,0
300,-300,-1289.07,0
300,-300,-1194.58,0
300,-300,-1077.92,0
300,-300,-941.53,0
300,-300,-786.83,0
300,-300,-630.53,0
300,-300,-471.42,0
300,-300,-318.72,0
300,-300,-180.13,0
300,-300,-62.22,0
300,-300,30.61,0
300,-300,95.65,0
300,-300,131.84,0
300,-300,141.92,0
300,-300,127.28,0
300,-300,91.35,0
300,-300,34.3,0
300,-300,-44.74,0
300,-300,-146.56,0
300,-300,-274.12,0
300,-300,-428.93,0
300,-300,-613.61,0
300,-300,-828.09,0
300,-300,-1069.53,0
300,-300,-1332.54,0
300,-300,-1610.5,0
300,-300,-1892.87,0
300,-300,-2170.18,0
300,-300,-2431.26,0
300,-300,-2668.34,0
300,-300,-2874.85,0
300,-300,-3048.46,0
300,-300,-3188.33,0
300,-300,-3297.72,0
300,-300,-3378.49,0
300,-300,-3436.22,0
300,-300,-3472.8,0
300,-300,-3490.55,0
300,-300,-3488.01,0
300,-300,-3463.79,0
300,-300,-3414.39,0
300,-300,-3337.38,0
300,-300,-3229.84,0
300,-300,-3094.01,0
300,-300,-2930.51,0
300,-300,-2745.81,0
300,-300,-2547.03,0
300,-300,-2343.42,0
300,-300,-2144.2,0
300,-300,-1958.88,0
300,-300,-1794.78,0
300,-300,-1658.16,0
300,-300,-1551.08,0
300,-300,-1476.84,0
300,-300,-1431.05,0
300,-300,-1411.93,0
300,-300,-1413.43,0
300,-300,-1430.08,0
300,-300,-1456.18,0
300,-300,-1485.86,0
300,-300,-1513.39,0
300,-300,-1533.58,0
300,-300,-1543.65,0
300,-300,-1538.58,0
300,-300,-1514.43,0
300,-300,-1468.88,0
300,-300,-1400.26,0
300,-300,-1307.39,0
300,-300,-1191.61,0
300,-300,-1055.67,0
300,-300,-904.84,0
300,-300,-746.06,0
300,-300,-587.37,0
300,-300,-433.74,0
300,-300,-302.51,0
300,-300,-189.63,0
300,-300,-102.38,0
300,-300,-44.33,0
300,-300,-17.18,0
300,-300,-19.52,0
300,-300,-49.36,0
300,-300,-103.29,0
300,-300,-179.17,0
300,-300,-273.28,0
300,-300,-386.04,0
300,-300,-517.57,0
300,-300,-668.7,0
300,-300,-840.17,0
300,-300,-1033.04,0
300,-300,-1245.33,0
300,-300,-1474.78,0
300,-300,-1716.08,0
300,-300,-1962.54,0
300,-300,-2206.51,0
300,-300,-2439.61,0
300,-300,-2654.38,0
300,-300,-2844.81,0
300,-300,-3006.49,0
300,-300,-3138.28,0
300,-300,-3239.76,0
300,-300,-3312.88,0
300,-300,-3360.12,0
300,-300,-3384.76,0
300,-300,-3387.58,0
300,-300,-3370.32,0
300,-300,-3332.89,0
300,-300,-3273.95,0
300,-300,-3192.2,0
300,-300,-3086.69,0
300,-300,-2957.72,0
300,-300,-2806.93,0
300,-300,-2629.45,0
300,-300,-2436.02,0
300,-300,-2229.95,0
300,-300,-2019.89,0
300,-300,-1814.6,0
300,-300,-1623.18,0
300,-300,-1455.17,0
300,-300,-1317.92,0
300,-300,-1217.89,0
300,-300,-1158.62,0
300,-300,-1144.04,0
300,-300,-1168,0
300,-300,-1226.26,0
300,-300,-1309.34,0
300,-300,-1406.48,0
300,-300,-1505.01,0
300,-300,-1592.21,0
300,-300,-1656.23,0
300,-300,-1686.92,0
300,-300,-1677.18,0
300,-300,-1624.48,0
300,-300,-1527.99,0
300,-300,-1393.56,0
300,-300,-1228.42,0
300,-300,-1044.21,0
300,-300,-853.41,0
300,-300,-668.65,0
300,-300,-500.88,0
300,-300,-358.84,0
300,-300,-248.24,0
300,-300,-172.33,0
300,-300,-128.86,0
300,-300,-116.48,0
300,-300,-128.83,0
300,-300,-162.49,0
300,-300,-213.51,0
300,-300,-279.39,0
300,-300,-359.58,0
300,-300,-454.1,0
300,-300,-565.68,0
300,-300,-696.52,0
300,-300,-850.47,0
300,-300,-1025.9,0
300,-300,-1223.16,0
300,-300,-1438.52,0
300,-300,-1665.91,0
300,-300,-1897.32,0
300,-300,-2124.54,0
300,-300,-2338.42,0
300,-300,-2532.55,0
300,-300,-2700.83,0
300,-300,-2842.43,0
300,-300,-2956,0
300,-300,-3044.86,0
300,-300,-3111.49,0
300,-300,-3160.02,0
300,-300,-3192.35,0
300,-300,-3209.79,0
300,-300,-3211.24,0
300,-300,-3195.74,0
300,-300,-3158.36,0
300,-300,-3095.97,0
300,-300,-3005.09,0
300,-300,-2885.78,0
300,-300,-2738.42,0
300,-300,-2567.35,0
300,-300,-2378.31,0
300,-300,-2180.88,0
300,-300,-1984.62,0
300,-300,-1797.07,0
300,-300,-1632.99,0
300,-300,-1499.86,0
300,-300,-1404.15,0
300,-300,-1348.8,0
300,-300,-1334.15,0
300,-300,-1357.56,0
300,-300,-1412.68,0
300,-300,-1491.3,0
300,-300,-1583.02,0
300,-300,-1678.73,0
300,-300,-1766.33,0
300,-300,-1836.57,0
300,-300,-1880.64,0
300,-300,-1892.29,0
300,-300,-1867.59,0
300,-300,-1805.63,0
300,-300,-1707.76,0
300,-300,-1578.85,0
300,-300,-1425.33,0
300,-300,-1256.3,0
300,-300,-1078.49,0
300,-300,-909.63,0
300,-300,-752.51,0
300,-300,-614.39,0
300,-300,-501.14,0
300,-300,-415.63,0
300,-300,-358.4,0
300,-300,-328.73,0
300,-300,-324.22,0
300,-300,-342.77,0
300,-300,-382.09,0
300,-300,-437.33,0
300,-300,-510.76,0
300,-300,-602.71,0
300,-300,-713.29,0
300,-300,-844.13,0
300,-300,-995.24,0
300,-300,-1166.58,0
300,-300,-1356.3,0
300,-300,-1561.19,0
300,-300,-1776.21,0
300,-300,-1993.56,0
300,-300,-2207.48,0
300,-300,-2411.06,0
300,-300,-2597.96,0
300,-300,-2764.13,0
300,-300,-2907.02,0
300,-300,-3025.95,0
300,-300,-3121.92,0
300,-300,-3197.15,0
300,-300,-3252.73,0
300,-300,-3289.23,0
300,-300,-3306.89,0
300,-300,-3304.68,0
300,-300,-3279.31,0
300,-300,-3229.3,0
300,-300,-3152.14,0
300,-300,-3048.06,0
300,-300,-2918.14,0
300,-300,-2766.57,0
300,-300,-2598.11,0
300,-300,-2420.81,0
300,-300,-2241.3,0
300,-300,-2068.84,0
300,-300,-1909.85,0
300,-300,-1769.98,0
300,-300,-1652.97,0
300,-300,-1560.47,0
300,-300,-1492.61,0
300,-300,-1447,0
300,-300,-1419.95,0
300,-300,-1408.71,0
300,-300,-1407.58,0
300,-300,-1412.78,0
300,-300,-1419.98,0
300,-300,-1425.14,0
300,-300,-1423.78,0
300,-300,-1412.41,0
300,-300,-1389.65,0
300,-300,-1351.26,0
300,-300,-1293.97,0
300,-300,-1217.26,0
300,-300,-1120.85,0
300,-300,-1005.97,0
300,-300,-875.25,0
300,-300,-734.14,0
300,-300,-588.23,0
300,-300,-444.72,0
300,-300,-312.02,0
300,-300,-193.93,0
300,-300,-100.06,0
300,-300,-28.59,0
300,-300,17.6,0
300,-300,38.81,0
300,-300,36.01,0
300,-300,11.65,0
300,-300,-31.37,0
300,-300,-91.29,0
300,-300,-168.01,0
300,-300,-262.04,0
300,-300,-373.81,0
300,-300,-507.19,0
300,-300,-664.85,0
300,-300,-847.9,0
300,-300,-1055.85,0
300,-300,-1286.92,0
300,-300,-1536.02,0
300,-300,-1797.35,0
300,-300,-2062.18,0
300,-300,-2322.7,0
300,-300,-2570.83,0
300,-300,-2800.07,0
300,-300,-3005.58,0
300,-300,-3184.35,0
300,-300,-3335.7,0
300,-300,-3459.74,0
300,-300,-3557.24,0
300,-300,-3630.9,0
300,-300,-3679.33,0
300,-300,-3703.44,0
300,-300,-3701.12,0
300,-300,-3671.93,0
300,-300,-3613.95,0
300,-300,-3527.24,0
300,-300,-3411.97,0
300,-300,-3271.52,0
300,-300,-3110.59,0
300,-300,-2931.91,0
300,-300,-2744.39,0
300,-300,-2555.2,0
300,-300,-2371.07,0
300,-300,-2198.34,0
300,-300,-2042.16,0
300,-300,-1905.93,0
300,-300,-1790.41,0
300,-300,-1695.71,0
300,-300,-1619.71,0
300,-300,-1561.24,0
300,-300,-1516.29,0
300,-300,-1482.1,0
300,-300,-1454.3,0
300,-300,-1430.76,0
300,-300,-1407.37,0
300,-300,-1382,0
300,-300,-1350.44,0
300,-300,-1310.99,0
300,-300,-1259.75,0
300,-300,-1196.31,0
300,-300,-1118,0
300,-300,-1025.48,0
300,-300,-919.4,0
300,-300,-803.71,0
300,-300,-681.17,0
300,-300,-557.76,0
300,-300,-437.75,0
300,-300,-326.78,0
300,-300,-229.17,0
300,-300,-148.48,0
300,-300,-87.09,0
300,-300,-44.64,0
300,-300,-22.08,0
300,-300,-18.38,0
300,-300,-32.1,0
300,-300,-62.5,0
300,-300,-109.31,0
300,-300,-172.53,0
300,-300,-253.72,0
300,-300,-355.76,0
300,-300,-480.29,0
300,-300,-626.75,0
300,-300,-796.43,0
300,-300,-988.01,0
300,-300,-1197.75,0
300,-300,-1420.38,0
300,-300,-1649.13,0
300,-300,-1877.5,0
300,-300,-2098.6,0
300,-300,-2307.41,0
300,-300,-2499.42,0
300,-300,-2670.83,0
300,-300,-2821.55,0
300,-300,-2951.35,0
300,-300,-3060.65,0
300,-300,-3149.21,0
300,-300,-3217.07,0
300,-300,-3263.39,0
300,-300,-3286.94,0
300,-300,-3287.78,0
300,-300,-3262.46,0
300,-300,-3210.64,0
300,-300,-3132.98,0
300,-300,-3032.12,0
300,-300,-2911.85,0
300,-300,-2777.54,0
300,-300,-2635.96,0
300,-300,-2494.37,0
300,-300,-2358.83,0
300,-300,-2227.2,0
300,-300,-2109.72,0
300,-300,-2005.87,0
300,-300,-1915.35,0
300,-300,-1836.79,0
300,-300,-1768.49,0
300,-300,-1708.51,0
300,-300,-1655.06,0
300,-300,-1607.72,0
300,-300,-1566.27,0
300,-300,-1531.8,0
300,-300,-1503.97,0
300,-300,-1484.3,0
300,-300,-1471.58,0
300,-300,-1464.77,0
300,-300,-1459.75,0
300,-300,-1453.2,0
300,-300,-1439.63,0
300,-300,-1414.59,0
300,-300,-1374.28,0
300,-300,-1315.56,0
300,-300,-1241.09,0
300,-300,-1151.09,0
300,-300,-1048.9,0
300,-300,-940.21,0
300,-300,-831.15,0
300,-300,-727.84,0
300,-300,-635.3,0
300,-300,-557.25,0
300,-300,-497.01,0
300,-300,-454.54,0
300,-300,-428.12,0
300,-300,-417.33,0
300,-300,-420.69,0
300,-300,-438.26,0
300,-300,-469.51,0
300,-300,-516.4,0
300,-300,-580.71,0
300,-300,-665.83,0
300,-300,-774.18,0
300,-300,-906.86,0
300,-300,-1062.53,0
300,-300,-1239.62,0
300,-300,-1432.62,0
300,-300,-1635.62,0
300,-300,-1840.73,0
300,-300,-2040.59,0
300,-300,-2228.36,0
300,-300,-2398.98,0
300,-300,-2551.18,0
300,-300,-2682.33,0
300,-300,-2793.55,0
300,-300,-2886.71,0
300,-300,-2964.14,0
300,-300,-3027.08,0
300,-300,-3075.76,0
300,-300,-3109.61,0
300,-300,-3125.62,0
300,-300,-3121.34,0
300,-300,-3092.97,0
300,-300,-3038.58,0
300,-300,-2955.28,0
300,-300,-2844.84,0
300,-300,-2709.66,0
300,-300,-2555.23,0
300,-300,-2387.88,0
300,-300,-2216.75,0
300,-300,-2049.96,0
300,-300,-1896.75,0
300,-300,-1761.02,0
300,-300,-1652.74,0
300,-300,-1571.81,0
300,-300,-1520.41,0
300,-300,-1495.76,0
300,-300,-1494.15,0
300,-300,-1509.97,0
300,-300,-1536.6,0
300,-300,-1566.88,0
300,-300,-1594.83,0
300,-300,-1614.46,0
300,-300,-1620.74,0
300,-300,-1607.93,0
300,-300,-1575.52,0
300,-300,-1521.21,0
300,-300,-1445.32,0
300,-300,-1348.13,0
300,-300,-1232.65,0
300,-300,-1101.74,0
300,-300,-960.7,0
300,-300,-813.8,0
300,-300,-665.31,0
300,-300,-526.68,0
300,-300,-395.67,0
300,-300,-276.76,0
300,-300,-173.89,0
300,-300,-89.28,0
300,-300,-24.54,0
300,-300,20.15,0
300,-300,43.28,0
300,-300,46.34,0
300,-300,28.16,0
300,-300,-11.68,0
300,-300,-73.72,0
300,-300,-159.45,0
300,-300,-270.19,0
300,-300,-405.22,0
300,-300,-564.66,0
300,-300,-746.18,0
300,-300,-947.74,0
300,-300,-1163.43,0
300,-300,-1388.08,0
300,-300,-1615.11,0
300,-300,-1838.62,0
300,-300,-2052.72,0
300,-300,-2252.97,0
300,-300,-2435.58,0
300,-300,-2598.9,0
300,-300,-2741.37,0
300,-300,-2864.59,0
300,-300,-2967.88,0
300,-300,-3050.79,0
300,-300,-3113.69,0
300,-300,-3156.19,0
300,-300,-3176.54,0
300,-300,-3173.89,0
300,-300,-3146.08,0
300,-300,-3093.89,0
300,-300,-3017.38,0
300,-300,-2911.98,0
300,-300,-2785.91,0
300,-300,-2640.88,0
300,-300,-2483.56,0
300,-300,-2321.45,0
300,-300,-2161.99,0
300,-300,-2014.03,0
300,-300,-1884.78,0
300,-300,-1780.92,0
300,-300,-1707.41,0
300,-300,-1666.09,0
300,-300,-1656,0
300,-300,-1672.53,0
300,-300,-1710.22,0
300,-300,-1760.62,0
300,-300,-1813.11,0
300,-300,-1857.32,0
300,-300,-1883.14,0
300,-300,-1882.53,0
300,-300,-1849.52,0
300,-300,-1780.73,0
300,-300,-1675.91,0
300,-300,-1539.38,0
300,-300,-1376.25,0
300,-300,-1195.75,0
300,-300,-1006.82,0
300,-300,-819.9,0
300,-300,-642.91,0
300,-300,-484.29,0
300,-300,-349.86,0
300,-300,-241.57,0
300,-300,-159.67,0
300,-300,-106.93,0
300,-300,-76.45,0
300,-300,-67.76,0
300,-300,-78.36,0
300,-300,-106.63,0
300,-300,-151.69,0
300,-300,-213.53,0
300,-300,-293.68,0
300,-300,-393.37,0
300,-300,-513.33,0
300,-300,-653.76,0
300,-300,-814.4,0
300,-300,-993.26,0
300,-300,-1186.15,0
300,-300,-1388.92,0
300,-300,-1595.34,0
300,-300,-1800.66,0
300,-300,-1999.32,0
300,-300,-2187.84,0
300,-300,-2362.57,0
300,-300,-2522.67,0
300,-300,-2666.31,0
300,-300,-2794.63,0
300,-300,-2906.81,0
300,-300,-3002.4,0
300,-300,-3079.94,0
300,-300,-3137.88,0
300,-300,-3173.96,0
300,-300,-3186.43,0
300,-300,-3171.52,0
300,-300,-3130.42,0
300,-300,-3063.44,0
300,-300,-2973.62,0
300,-300,-2865.63,0
300,-300,-2745.76,0
300,-300,-2619.76,0
300,-300,-2485.94,0
300,-300,-2356.83,0
300,-300,-2233.92,0
300,-300,-2119.22,0
300,-300,-2014.61,0
300,-300,-1920.45,0
300,-300,-1835.95,0
300,-300,-1760.45,0
300,-300,-1693.69,0
300,-300,-1634.88,0
300,-300,-1585.37,0
300,-300,-1543.44,0
300,-300,-1510.54,0
300,-300,-1484.07,0
300,-300,-1463.41,0
300,-300,-1445.15,0
300,-300,-1425.64,0
300,-300,-1399.09,0
300,-300,-1360.8,0
300,-300,-1306.08,0
300,-300,-1232.7,0
300,-300,-1137.85,0
300,-300,-1021.64,0
300,-300,-893.43,0
300,-300,-753.17,0
300,-300,-607.49,0
300,-300,-464.23,0
300,-300,-330.07,0
300,-300,-211.01,0
300,-300,-110.63,0
300,-300,-32.96,0
300,-300,23.03,0
300,-300,57.26,0
300,-300,71.34,0
300,-300,65.56,0
300,-300,41.26,0
300,-300,-2.85,0
300,-300,-67.84,0
300,-300,-156.77,0
300,-300,-271.47,0
300,-300,-414.06,0
300,-300,-585.33,0
300,-300,-783.38,0
300,-300,-1005.14,0
300,-300,-1245.38,0
300,-300,-1495.71,0
300,-300,-1749.2,0
300,-300,-1996.56,0
300,-300,-2232.27,0
300,-300,-2449.85,0
300,-300,-2646.2,0
300,-300,-2820.34,0
300,-300,-2970.86,0
300,-300,-3100.25,0
300,-300,-3210.1,0
300,-300,-3300.6,0
300,-300,-3372.47,0
300,-300,-3424.07,0
300,-300,-3453.59,0
300,-300,-3459.14,0
300,-300,-3438.16,0
300,-300,-3389.01,0
300,-300,-3311.94,0
300,-300,-3209.2,0
300,-300,-3085.09,0
300,-300,-2945.12,0
300,-300,-2796.37,0
300,-300,-2645.36,0
300,-300,-2499.51,0
300,-300,-2358.08,0
300,-300,-2231.89,0
300,-300,-2120.64,0
300,-300,-2025.33,0
300,-300,-1944.89,0
300,-300,-1878.44,0
300,-300,-1823.11,0
300,-300,-1777.82,0
300,-300,-1739.9,0
300,-300,-1707.87,0
300,-300,-1680.49,0
300,-300,-1655.91,0
300,-300,-1631.77,0
300,-300,-1605.76,0
300,-300,-1574.22,0
300,-300,-1534.47,0
300,-300,-1482.28,0
300,-300,-1414.63,0
300,-300,-1329.19,0
300,-300,-1225.94,0
300,-300,-1104.95,0
300,-300,-968.66,0
300,-300,-829.72,0
300,-300,-686.92,0
300,-300,-547.44,0
300,-300,-418.05,0
300,-300,-304.76,0
300,-300,-211.93,0
300,-300,-141.6,0
300,-300,-94.34,0
300,-300,-69.69,0
300,-300,-66.49,0
300,-300,-82.1,0
300,-300,-117.02,0
300,-300,-170.54,0
300,-300,-243.79,0
300,-300,-338.07,0
300,-300,-455.38,0
300,-300,-596.73,0
300,-300,-762.5,0
300,-300,-950.66,0
300,-300,-1158.22,0
300,-300,-1378.84,0
300,-300,-1607.27,0
300,-300,-1835.37,0
300,-300,-2056.65,0
300,-300,-2264.03,0
300,-300,-2453.86,0
300,-300,-2621.98,0
300,-300,-2768.19,0
300,-300,-2892.58,0
300,-300,-2996.75,0
300,-300,-3080.95,0
300,-300,-3147.08,0
300,-300,-3194.69,0
300,-300,-3222.76,0
300,-300,-3229.22,0
300,-300,-3211.96,0
300,-300,-3168.97,0
300,-300,-3099.28,0
300,-300,-3001.99,0
300,-300,-2879.92,0
300,-300,-2736.21,0
300,-300,-2576.83,0
300,-300,-2408.33,0
300,-300,-2240.09,0
300,-300,-2079.35,0
300,-300,-1935.23,0
300,-300,-1813.29,0
300,-300,-1721.6,0
300,-300,-1660.27,0
300,-300,-1630.47,0
300,-300,-1630.29,0
300,-300,-1654.36,0
300,-300,-1696.11,0
300,-300,-1747.79,0
300,-300,-1800.05,0
300,-300,-1844.58,0
300,-300,-1872.28,0
300,-300,-1878.39,0
300,-300,-1856.35,0
300,-300,-1802.97,0
300,-300,-1717.98,0
300,-300,-1603.95,0
300,-300,-1464.29,0
300,-300,-1305.67,0
300,-300,-1135.46,0
300,-300,-962.02,0
300,-300,-794,0
300,-300,-639.49,0
300,-300,-503.31,0
300,-300,-395.37,0
300,-300,-312.24,0
300,-300,-255.51,0
300,-300,-225.31,0
300,-300,-220.6,0
300,-300,-238.66,0
300,-300,-277.71,0
300,-300,-334.84,0
300,-300,-409.72,0
300,-300,-501.45,0
300,-300,-610.6,0
300,-300,-737.8,0
300,-300,-883.65,0
300,-300,-1047.21,0
300,-300,-1227.1,0
300,-300,-1419.74,0
300,-300,-1620.83,0
300,-300,-1825.29,0
300,-300,-2026.35,0
300,-300,-2217.49,0
300,-300,-2394.14,0
300,-300,-2551.23,0
300,-300,-2686.7,0
300,-300,-2799.26,0
300,-300,-2890.04,0
300,-300,-2959.76,0
300,-300,-3010.67,0
300,-300,-3045.15,0
300,-300,-3062.51,0
300,-300,-3063.33,0
300,-300,-3046.4,0
300,-300,-3010.37,0
300,-300,-2954.16,0
300,-300,-2876.75,0
300,-300,-2777.81,0
300,-300,-2658.64,0
300,-300,-2522.3,0
300,-300,-2365.11,0
300,-300,-2201.06,0
300,-300,-2035.13,0
300,-300,-1876.95,0
300,-300,-1734.41,0
300,-300,-1616.55,0
300,-300,-1529.76,0
300,-300,-1479.52,0
300,-300,-1466.92,0
300,-300,-1491.16,0
300,-300,-1547.6,0
300,-300,-1629.11,0
300,-300,-1724.19,0
300,-300,-1821.23,0
300,-300,-1907.47,0
300,-300,-1970.67,0
300,-300,-2000.6,0
300,-300,-1989.06,0
300,-300,-1932.2,0
300,-300,-1829.66,0
300,-300,-1684.12,0
300,-300,-1504.32,0
300,-300,-1299.78,0
300,-300,-1083.5,0
300,-300,-867.9,0
300,-300,-665.32,0
300,-300,-485.28,0
300,-300,-335.28,0
300,-300,-219.12,0
300,-300,-138.88,0
300,-300,-92.99,0
300,-300,-79.3,0
300,-300,-92.22,0
300,-300,-129.89,0
300,-300,-189.15,0
300,-300,-267.92,0
300,-300,-365.44,0
300,-300,-481.75,0
300,-300,-617.56,0
300,-300,-774.2,0
300,-300,-949.68,0
300,-300,-1143.85,0
300,-300,-1351.24,0
300,-300,-1567.66,0
300,-300,-1786.67,0
300,-300,-2001.27,0
300,-300,-2203.4,0
300,-300,-2387.52,0
300,-300,-2549.22,0
300,-300,-2686.47,0
300,-300,-2799.18,0
300,-300,-2889.13,0
300,-300,-2958.67,0
300,-300,-3010.59,0
300,-300,-3047.72,0
300,-300,-3070.8,0
300,-300,-3079.31,0
300,-300,-3071.29,0
300,-300,-3044.1,0
300,-300,-2993.39,0
300,-300,-2915.98,0
300,-300,-2810.72,0
300,-300,-2676.81,0
300,-300,-2517.78,0
300,-300,-2338.77,0
300,-300,-2148.8,0
300,-300,-1957.46,0
300,-300,-1776.85,0
300,-300,-1618.13,0
300,-300,-1492.34,0
300,-300,-1407.73,0
300,-300,-1366.97,0
300,-300,-1371.46,0
300,-300,-1416.86,0
300,-300,-1494.81,0
300,-300,-1593.73,0
300,-300,-1699.97,0
300,-300,-1798.8,0
300,-300,-1875.99,0
300,-300,-1920.72,0
300,-300,-1923.57,0
300,-300,-1877.65,0
300,-300,-1783.87,0
300,-300,-1645.48,0
300,-300,-1469.34,0
300,-300,-1265.65,0
300,-300,-1046.19,0
300,-300,-824.1,0
300,-300,-611.64,0
300,-300,-419.37,0
300,-300,-252.95,0
300,-300,-125.4,0
300,-300,-30.76,0
300,-300,30.31,0
300,-300,60.04,0
300,-300,60.62,0
300,-300,35.56,0
300,-300,-12,0
300,-300,-79.88,0
300,-300,-166.03,0
300,-300,-271.03,0
300,-300,-394.36,0
300,-300,-537.39,0
300,-300,-701.16,0
300,-300,-885.03,0
300,-300,-1087.57,0
300,-300,-1305.35,0
300,-300,-1533.9,0
300,-300,-1767.86,0
300,-300,-2000.34,0
300,-300,-2224.54,0
300,-300,-2436.3,0
300,-300,-2628.89,0
300,-300,-2799.81,0
300,-300,-2946.24,0
300,-300,-3067.39,0
300,-300,-3162.75,0
300,-300,-3232.17,0
300,-300,-3276.55,0
300,-300,-3293.67,0
300,-300,-3282.89,0
300,-300,-3243.35,0
300,-300,-3174.43,0
300,-300,-3076.62,0
300,-300,-2951.43,0
300,-300,-2802.17,0
300,-300,-2633.28,0
300,-300,-2450.94,0
300,-300,-2250.73,0
300,-300,-2050.58,0
300,-300,-1853.29,0
300,-300,-1668.06,0
300,-300,-1500.9,0
300,-300,-1358.43,0
300,-300,-1245.15,0
300,-300,-1165,0
300,-300,-1118.69,0
300,-300,-1107,0
300,-300,-1127.41,0
300,-300,-1174.9,0
300,-300,-1241.13,0
300,-300,-1318.26,0
300,-300,-1395.53,0
300,-300,-1462.51,0
300,-300,-1508.12,0
300,-300,-1523.82,0
300,-300,-1502.88,0
300,-300,-1442.4,0
300,-300,-1342.24,0
300,-300,-1206.71,0
300,-300,-1044.52,0
300,-300,-866.9,0
300,-300,-685.35,0
300,-300,-512.95,0
300,-300,-360.22,0
300,-300,-236.47,0
300,-300,-145.97,0
300,-300,-92.62,0
300,-300,-73.09,0
300,-300,-84.77,0
300,-300,-121.37,0
300,-300,-177.6,0
300,-300,-249.99,0
300,-300,-335.8,0
300,-300,-434.41,0
300,-300,-548.05,0
300,-300,-679.55,0
300,-300,-833.4,0
300,-300,-1011.65,0
300,-300,-1216.76,0
300,-300,-1445.8,0
300,-300,-1695.25,0
300,-300,-1957.26,0
300,-300,-2222.81,0
300,-300,-2479.98,0
300,-300,-2718.88,0
300,-300,-2930.71,0
300,-300,-3109.89,0
300,-300,-3253.18,0
300,-300,-3361.61,0
300,-300,-3437.7,0
300,-300,-3487.05,0
300,-300,-3513.84,0
300,-300,-3523,0
300,-300,-3516.41,0
300,-300,-3495.05,0
300,-300,-3456.95,0
300,-300,-3400.33,0
300,-300,-3321.13,0
300,-300,-3217.25,0
300,-300,-3088.8,0
300,-300,-2936.94,0
300,-300,-2766.08,0
300,-300,-2582.66,0
300,-300,-2394.55,0
300,-300,-2211.07,0
300,-300,-2040.89,0
300,-300,-1886.81,0
300,-300,-1760.18,0
300,-300,-1661.23,0
300,-300,-1590.27,0
300,-300,-1545.81,0
300,-300,-1523.08,0
300,-300,-1517.64,0
300,-300,-1523.41,0
300,-300,-1535.56,0
300,-300,-1548.95,0
300,-300,-1559,0
300,-300,-1562.02,0
300,-300,-1553.82,0
300,-300,-1533.05,0
300,-300,-1496.65,0
300,-300,-1441.89,0
300,-300,-1367.67,0
300,-300,-1272.87,0
300,-300,-1158.44,0
300,-300,-1026.93,0
300,-300,-883,0
300,-300,-728.87,0
300,-300,-582.54,0
300,-300,-440.3,0
300,-300,-310.83,0
300,-300,-200.82,0
300,-300,-115.96,0
300,-300,-59.31,0
300,-300,-32.36,0
300,-300,-34.72,0
300,-300,-63.27,0
300,-300,-115.76,0
300,-300,-188.63,0
300,-300,-280.39,0
300,-300,-390.59,0
300,-300,-518.29,0
300,-300,-663.62,0
300,-300,-826.53,0
300,-300,-1007.11,0
300,-300,-1203.73,0
300,-300,-1413.45,0
300,-300,-1631.24,0
300,-300,-1851.89,0
300,-300,-2068.63,0
300,-300,-2274.87,0
300,-300,-2464.56,0
300,-300,-2633.65,0
300,-300,-2779.56,0
300,-300,-2901.73,0
300,-300,-3001.06,0
300,-300,-3079.81,0
300,-300,-3138.68,0
300,-300,-3180.81,0
300,-300,-3205.95,0
300,-300,-3213.99,0
300,-300,-3202.88,0
300,-300,-3170.21,0
300,-300,-3113.97,0
300,-300,-3033.59,0
300,-300,-2926.83,0
300,-300,-2797.21,0
300,-300,-2646.52,0
300,-300,-2481.59,0
300,-300,-2308.13,0
300,-300,-2134.8,0
300,-300,-1969.26,0
300,-300,-1819.69,0
300,-300,-1691.57,0
300,-300,-1591.97,0
300,-300,-1522.57,0
300,-300,-1483.28,0
300,-300,-1472.33,0
300,-300,-1485.7,0
300,-300,-1517.2,0
300,-300,-1560.19,0
300,-300,-1606.61,0
300,-300,-1648.72,0
300,-300,-1678.87,0
300,-300,-1692.69,0
300,-300,-1682.73,0
300,-300,-1646.89,0
300,-300,-1582.83,0
300,-300,-1492.25,0
300,-300,-1377.74,0
300,-300,-1244.5,0
300,-300,-1098.94,0
300,-300,-948.82,0
300,-300,-802.61,0
300,-300,-668.39,0
300,-300,-552.03,0
300,-300,-457.13,0
300,-300,-392.01,0
300,-300,-351.65,0
300,-300,-336.8,0
300,-300,-345.97,0
300,-300,-376.69,0
300,-300,-426.39,0
300,-300,-492.02,0
300,-300,-572.36,0
300,-300,-667.04,0
300,-300,-776.26,0
300,-300,-901.79,0
300,-300,-1044.54,0
300,-300,-1204.9,0
300,-300,-1381.63,0
300,-300,-1572.38,0
300,-300,-1772.54,0
300,-300,-1975.87,0
300,-300,-2175.11,0
300,-300,-2363.69,0
300,-300,-2534,0
300,-300,-2681.23,0
300,-300,-2802.6,0
300,-300,-2896.82,0
300,-300,-2965.26,0
300,-300,-3010.54,0
300,-300,-3035.57,0
300,-300,-3043.78,0
300,-300,-3038.07,0
300,-300,-3019.59,0
300,-300,-2986.87,0
300,-300,-2940.47,0
300,-300,-2877.94,0
300,-300,-2798.13,0
300,-300,-2700.05,0
300,-300,-2584.46,0
300,-300,-2453.69,0
300,-300,-2311.41,0
300,-300,-2152.7,0
300,-300,-1992.83,0
300,-300,-1835.67,0
300,-300,-1688.05,0
300,-300,-1557.18,0
300,-300,-1448.75,0
300,-300,-1367.12,0
300,-300,-1315.2,0
300,-300,-1294.23,0
300,-300,-1302.94,0
300,-300,-1339.66,0
300,-300,-1396.76,0
300,-300,-1467.19,0
300,-300,-1542.56,0
300,-300,-1613.14,0
300,-300,-1668.69,0
300,-300,-1700.12,0
300,-300,-1699.25,0
300,-300,-1660.69,0
300,-300,-1581.97,0
300,-300,-1463.83,0
300,-300,-1309.57,0
300,-300,-1129.14,0
300,-300,-931.26,0
300,-300,-728.55,0
300,-300,-532.46,0
300,-300,-354.66,0
300,-300,-203.99,0
300,-300,-86.76,0
300,-300,-5.8,0
300,-300,36.75,0
300,-300,45.41,0
300,-300,23.4,0
300,-300,-25.19,0
300,-300,-96.03,0
300,-300,-185.32,0
300,-300,-290.86,0
300,-300,-411.87,0
300,-300,-548.61,0
300,-300,-702.29,0
300,-300,-873.46,0
300,-300,-1061.33,0
300,-300,-1265.04,0
300,-300,-1480.4,0
300,-300,-1701.71,0
300,-300,-1921.83,0
300,-300,-2133.66,0
300,-300,-2330.04,0
300,-300,-2505.78,0
300,-300,-2658.21,0
300,-300,-2785.8,0
300,-300,-2888.85,0
300,-300,-2970.65,0
300,-300,-3034.17,0
300,-300,-3081.25,0
300,-300,-3113.96,0
300,-300,-3132.09,0
300,-300,-3133.99,0
300,-300,-3117.39,0
300,-300,-3079.88,0
300,-300,-3018.23,0
300,-300,-2931.52,0
300,-300,-2820.69,0
300,-300,-2688.97,0
300,-300,-2541.66,0
300,-300,-2386.13,0
300,-300,-2230.55,0
300,-300,-2084.21,0
300,-300,-1954.39,0
300,-300,-1845.53,0
300,-300,-1765.31,0
300,-300,-1715.14,0
300,-300,-1693.54,0
300,-300,-1698.52,0
300,-300,-1725.23,0
300,-300,-1767.85,0
300,-300,-1819.88,0
300,-300,-1874.27,0
300,-300,-1924.02,0
300,-300,-1963.91,0
300,-300,-1986.95,0
300,-300,-1988.3,0
300,-300,-1963.68,0
300,-300,-1910.3,0
300,-300,-1826.35,0
300,-300,-1712.31,0
300,-300,-1569.76,0
300,-300,-1403.84,0
300,-300,-1220.47,0
300,-300,-1027.89,0
300,-300,-833.36,0
300,-300,-655.03,0
300,-300,-492.08,0
300,-300,-352.05,0
300,-300,-240.15,0
300,-300,-159.04,0
300,-300,-108.1,0
300,-300,-84.84,0
300,-300,-85.17,0
300,-300,-103.63,0
300,-300,-137.52,0
300,-300,-181.12,0
300,-300,-235.82,0
300,-300,-302.4,0
300,-300,-383.05,0
300,-300,-480.78,0
300,-300,-598.98,0
300,-300,-739.81,0
300,-300,-903.11,0
300,-300,-1087.64,0
300,-300,-1288.33,0
300,-300,-1499.06,0
300,-300,-1712.14,0
300,-300,-1919.47,0
300,-300,-2113.54,0
300,-300,-2288.28,0
300,-300,-2440.23,0
300,-300,-2567.71,0
300,-300,-2670.9,0
300,-300,-2750.96,0
300,-300,-2810.77,0
300,-300,-2851.16,0
300,-300,-2874,0
300,-300,-2879.47,0
300,-300,-2866.76,0
300,-300,-2834.18,0
300,-300,-2780.64,0
300,-300,-2705.71,0
300,-300,-2607.09,0
300,-300,-2487.09,0
300,-300,-2348.4,0
300,-300,-2196.33,0
300,-300,-2036.07,0
300,-300,-1876.3,0
300,-300,-1725,0
300,-300,-1590.18,0
300,-300,-1478.86,0
300,-300,-1396,0
300,-300,-1347.38,0
300,-300,-1330.97,0
300,-300,-1345.38,0
300,-300,-1385.62,0
300,-300,-1444.74,0
300,-300,-1513.63,0
300,-300,-1581.86,0
300,-300,-1639.28,0
300,-300,-1676.45,0
300,-300,-1685.25,0
300,-300,-1660.58,0
300,-300,-1599.48,0
300,-300,-1501.76,0
300,-300,-1372.07,0
300,-300,-1217.06,0
300,-300,-1045.37,0
300,-300,-867.18,0
300,-300,-692.87,0
300,-300,-532.01,0
300,-300,-392.66,0
300,-300,-279.92,0
300,-300,-196.4,0
300,-300,-144.2,0
300,-300,-118.23,0
300,-300,-115.29,0
300,-300,-132.61,0
300,-300,-166.63,0
300,-300,-215.36,0
300,-300,-277,0
300,-300,-352.69,0
300,-300,-444.16,0
300,-300,-554.48,0
300,-300,-685.87,0
300,-300,-840.97,0
300,-300,-1019.41,0
300,-300,-1219.57,0
300,-300,-1436.34,0
300,-300,-1663.52,0
300,-300,-1892.68,0
300,-300,-2117.47,0
300,-300,-2328.49,0
300,-300,-2521.16,0
300,-300,-2691.36,0
300,-300,-2836.9,0
300,-300,-2958.21,0
300,-300,-3057.23,0
300,-300,-3135.73,0
300,-300,-3196.36,0
300,-300,-3239.79,0
300,-300,-3268.27,0
300,-300,-3278.07,0
300,-300,-3267.49,0
300,-300,-3234.15,0
300,-300,-3175.55,0
300,-300,-3091.85,0
300,-300,-2985.49,0
300,-300,-2860.32,0
300,-300,-2723.16,0
300,-300,-2581.82,0
300,-300,-2434.72,0
300,-300,-2296.08,0
300,-300,-2169.72,0
300,-300,-2058.48,0
300,-300,-1964.79,0
300,-300,-1888.08,0
300,-300,-1827.3,0
300,-300,-1779.73,0
300,-300,-1742.93,0
300,-300,-1714.68,0
300,-300,-1695.51,0
300,-300,-1681.96,0
300,-300,-1673.62,0
300,-300,-1669.14,0
300,-300,-1666.92,0
300,-300,-1663.87,0
300,-300,-1656.03,0
300,-300,-1638.23,0
300,-300,-1605.5,0
300,-300,-1552.44,0
300,-300,-1474.92,0
300,-300,-1370.54,0
300,-300,-1242.13,0
300,-300,-1092.62,0
300,-300,-928.55,0
300,-300,-758,0
300,-300,-590.89,0
300,-300,-435.57,0
300,-300,-301.06,0
300,-300,-192.75,0
300,-300,-114.54,0
300,-300,-67.32,0
300,-300,-47.41,0
300,-300,-54.31,0
300,-300,-84.12,0
300,-300,-133.72,0
300,-300,-201.94,0
300,-300,-287.97,0
300,-300,-394.02,0
300,-300,-523.41,0
300,-300,-677.48,0
300,-300,-858.05,0
300,-300,-1065.12,0
300,-300,-1295.25,0
300,-300,-1543.2,0
300,-300,-1800.16,0
300,-300,-2056.94,0
300,-300,-2302.89,0
300,-300,-2529.14,0
300,-300,-2728.9,0
300,-300,-2896.74,0
300,-300,-3031.76,0
300,-300,-3134.79,0
300,-300,-3208.49,0
300,-300,-3258.22,0
300,-300,-3287.43,0
300,-300,-3299.76,0
300,-300,-3295.92,0
300,-300,-3275.83,0
300,-300,-3238.45,0
300,-300,-3180.77,0
300,-300,-3100.34,0
300,-300,-2997.07,0
300,-300,-2872.21,0
300,-300,-2729.75,0
300,-300,-2575.59,0
300,-300,-2418.08,0
300,-300,-2264.72,0
300,-300,-2124.23,0
300,-300,-1994.25,0
300,-300,-1889.53,0
300,-300,-1806.89,0
300,-300,-1747.55,0
300,-300,-1708.08,0
300,-300,-1685.07,0
300,-300,-1673.68,0
300,-300,-1669.75,0
300,-300,-1669.46,0
300,-300,-1670.51,0
300,-300,-1669.92,0
300,-300,-1667.89,0
300,-300,-1660.7,0
300,-300,-1649.12,0
300,-300,-1630.6,0
300,-300,-1602.15,0
300,-300,-1559.76,0
300,-300,-1499.84,0
300,-300,-1419.38,0
300,-300,-1317.53,0
300,-300,-1194.14,0
300,-300,-1050.37,0
300,-300,-900.36,0
300,-300,-744.03,0
300,-300,-589.67,0
300,-300,-446.15,0
300,-300,-321.4,0
300,-300,-221.95,0
300,-300,-151.18,0
300,-300,-110.21,0
300,-300,-98.87,0
300,-300,-113.94,0
300,-300,-150.17,0
300,-300,-206.18,0
300,-300,-278.88,0
300,-300,-368.24,0
300,-300,-473.37,0
300,-300,-595.97,0
300,-300,-737.32,0
300,-300,-898.53,0
300,-300,-1079.55,0
300,-300,-1277.13,0
300,-300,-1487.66,0
300,-300,-1704.43,0
300,-300,-1919.44,0
300,-300,-2125.11,0
300,-300,-2313.46,0
300,-300,-2479.01,0
300,-300,-2617.95,0
300,-300,-2729.71,0
300,-300,-2815.58,0
300,-300,-2878.44,0
300,-300,-2921.15,0
300,-300,-2947.9,0
300,-300,-2960.35,0
300,-300,-2959.45,0
300,-300,-2943.75,0
300,-300,-2911.14,0
300,-300,-2858.22,0
300,-300,-2783.52,0
300,-300,-2684.52,0
300,-300,-2561.92,0
300,-300,-2418.15,0
300,-300,-2258.56,0
300,-300,-2089.56,0
300,-300,-1920.1,0
300,-300,-1759.28,0
300,-300,-1616.73,0
300,-300,-1499.74,0
300,-300,-1415.45,0
300,-300,-1367.85,0
300,-300,-1355.98,0
300,-300,-1379.06,0
300,-300,-1431.93,0
300,-300,-1507.16,0
300,-300,-1596.93,0
300,-300,-1690.81,0
300,-300,-1779.74,0
300,-300,-1854.19,0
300,-300,-1907.64,0
300,-300,-1932.7,0
300,-300,-1924.26,0
300,-300,-1880.87,0
300,-300,-1803.16,0
300,-300,-1692.95,0
300,-300,-1555.53,0
300,-300,-1397.62,0
300,-300,-1227.9,0
300,-300,-1054.93,0
300,-300,-889.27,0
300,-300,-735.34,0
300,-300,-608.81,0
300,-300,-503.57,0
300,-300,-423.42,0
300,-300,-369.4,0
300,-300,-339.97,0
300,-300,-331.79,0
300,-300,-341.94,0
300,-300,-366.9,0
300,-300,-405.42,0
300,-300,-455.14,0
300,-300,-518.45,0
300,-300,-596.58,0
300,-300,-692.71,0
300,-300,-809.35,0
300,-300,-948.61,0
300,-300,-1109.65,0
300,-300,-1290.73,0
300,-300,-1486.98,0
300,-300,-1692.55,0
300,-300,-1899.53,0
300,-300,-2101.33,0
300,-300,-2290.49,0
300,-300,-2461.92,0
300,-300,-2611.4,0
300,-300,-2737.84,0
300,-300,-2840.76,0
300,-300,-2921.36,0
300,-300,-2980.58,0
300,-300,-3021.08,0
300,-300,-3043.36,0
300,-300,-3045.92,0
300,-300,-3029.11,0
300,-300,-2991.28,0
300,-300,-2931.09,0
300,-300,-2849.91,0
300,-300,-2748.18,0
300,-300,-2630.67,0
300,-300,-2497.79,0
300,-300,-2358.31,0
300,-300,-2217.43,0
300,-300,-2080.74,0
300,-300,-1954.52,0
300,-300,-1843.18,0
300,-300,-1749,0
300,-300,-1673.83,0
300,-300,-1617,0
300,-300,-1577.48,0
300,-300,-1556.52,0
300,-300,-1548.17,0
300,-300,-1550.83,0
300,-300,-1560.72,0
300,-300,-1574.53,0
300,-300,-1588.87,0
300,-300,-1599.29,0
300,-300,-1601.22,0
300,-300,-1589.92,0
300,-300,-1560.83,0
300,-300,-1511.37,0
300,-300,-1437.71,0
300,-300,-1338.95,0
300,-300,-1217.56,0
300,-300,-1076.1,0
300,-300,-921.65,0
300,-300,-761.33,0
300,-300,-603.62,0
300,-300,-456.54,0
300,-300,-327.22,0
300,-300,-222.51,0
300,-300,-144.13,0
300,-300,-93.3,0
300,-300,-68.29,0
300,-300,-67.38,0
300,-300,-87.02,0
300,-300,-123.42,0
300,-300,-175.26,0
300,-300,-240.71,0
300,-300,-321.83,0
300,-300,-420.36,0
300,-300,-541.16,0
300,-300,-685.63,0
300,-300,-857.01,0
300,-300,-1055.12,0
300,-300,-1277.5,0
300,-300,-1518.07,0
300,-300,-1769.36,0
300,-300,-2022.1,0
300,-300,-2266.79,0
300,-300,-2494.47,0
300,-300,-2699.81,0
300,-300,-2876.47,0
300,-300,-3023.67,0
300,-300,-3141.74,0
300,-300,-3233.06,0
300,-300,-3300.82,0
300,-300,-3347.28,0
300,-300,-3374.59,0
300,-300,-3384.45,0
300,-300,-3374.47,0
300,-300,-3343.21,0
300,-300,-3287.35,0
300,-300,-3205.87,0
300,-300,-3097.78,0
300,-300,-2964.93,0
300,-300,-2811.47,0
300,-300,-2643.57,0
300,-300,-2468.18,0
300,-300,-2283.15,0
300,-300,-2104.66,0
300,-300,-1937.01,0
300,-300,-1784.34,0
300,-300,-1650.9,0
300,-300,-1538.11,0
300,-300,-1446.39,0
300,-300,-1374.89,0
300,-300,-1322.55,0
300,-300,-1286.58,0
300,-300,-1267.81,0
