Tran,San,Gia_tri_PPG,Truc_0
300,-300,-530.17,0
300,-300,-1317.84,0
300,-300,-2584.97,0
300,-300,-4439.28,0
300,-300,-6949.09,0
300,-300,-10135.16,0
300,-300,-13962.78,0
300,-300,-18335.23,0
300,-300,-23092.05,0
300,-300,-28034.42,0
300,-300,-32957.77,0
300,-300,-37479.91,0
300,-300,-41393.56,0
300,-300,-44489.70,0
300,-300,-46633.16,0
300,-300,-47781.37,0
300,-300,-47994.92,0
300,-300,-47434.86,0
300,-300,-46347.76,0
300,-300,-45040.87,0
300,-300,-43850.50,0
300,-300,-43103.63,0
300,-300,-43085.50,0
300,-300,-44008.68,0
300,-300,-45993.79,0
300,-300,-49059.64,0
300,-300,-53126.14,0
300,-300,-58026.25,0
300,-300,-63526.69,0
300,-300,-69352.74,0
300,-300,-75213.61,0
300,-300,-80825.17,0
300,-300,-85926.18,0
300,-300,-90288.96,0
300,-300,-93723.93,0
300,-300,-96077.65,0
300,-300,-97227.73,0
300,-300,-97077.59,0
300,-300,-95551.66,0
300,-300,-92594.41,0
300,-300,-88171.12,0
300,-300,-82276.82,0
300,-300,-74939.11,0
300,-300,-66227.78,0
300,-300,-56260.64,0
300,-300,-45203.34,0
300,-300,-33266.83,0
300,-300,-20698.67,0
300,-300,-7770.49,0
300,-300,5236.94,0
300,-300,18050.77,0
300,-300,30418.96,0
300,-300,42119.45,0
300,-300,52966.26,0
300,-300,62808.94,0
300,-300,71528.70,0
300,-300,79031.00,0
300,-300,85239.84,0
300,-300,90091.14,0
300,-300,93535.26,0
300,-300,95532.90,0
300,-300,96071.13,0
300,-300,95169.40,0
300,-300,92894.41,0
300,-300,89368.18,0
300,-300,84776.73,0
300,-300,79366.58,0
300,-300,73438.46,0
300,-300,67327.67,0
300,-300,61384.27,0
300,-300,55938.30,0
300,-300,51275.09,0
300,-300,47604.68,0
300,-300,45044.13,0
300,-300,43602.86,0
300,-300,43184.84,0
300,-300,43597.84,0
300,-300,44576.44,0
300,-300,45808.87,0
300,-300,46971.78,0
300,-300,47760.71,0
300,-300,47923.02,0
300,-300,47278.40,0
300,-300,45734.04,0
300,-300,43287.32,0
300,-300,40019.96,0
300,-300,36083.72,0
300,-300,31678.97,0
300,-300,27031.80,0
300,-300,22369.28,0
300,-300,17748.36,0
300,-300,13782.27,0
300,-300,10226.24,0
300,-300,7170.40,0
300,-300,4668.17,0
300,-300,2721.02,0
300,-300,1287.40,0
300,-300,298.58,0
300,-300,-333.40,0
300,-300,-705.18,0
300,-300,-910.71,0
300,-300,-965.57,0
300,-300,-1037.13,0
300,-300,-1122.15,0
300,-300,-1217.68,0
300,-300,-1319.70,0
300,-300,-1425.68,0
300,-300,-1532.47,0
300,-300,-1641.61,0
300,-300,-1750.81,0
300,-300,-1862.24,0
300,-300,-1976.29,0
300,-300,-2095.01,0
300,-300,-2218.66,0
300,-300,-2346.73,0
300,-300,-2477.07,0
300,-300,-2606.90,0
300,-300,-2731.86,0
300,-300,-2849.36,0
300,-300,-2954.45,0
300,-300,-3044.72,0
300,-300,-3118.50,0
300,-300,-3175.49,0
300,-300,-3216.69,0
300,-300,-3244.37,0
300,-300,-3261.05,0
300,-300,-3268.76,0
300,-300,-3269.14,0
300,-300,-3263.05,0
300,-300,-3248.91,0
300,-300,-3224.51,0
300,-300,-3188.30,0
300,-300,-3135.71,0
300,-300,-3064.48,0
300,-300,-2973.39,0
300,-300,-2862.21,0
300,-300,-2733.30,0
300,-300,-2590.44,0
300,-300,-2436.99,0
300,-300,-2281.31,0
300,-300,-2127.96,0
300,-300,-1982.77,0
300,-300,-1850.64,0
300,-300,-1733.70,0
300,-300,-1632.68,0
300,-300,-1545.81,0
300,-300,-1470.32,0
300,-300,-1397.48,0
300,-300,-1326.94,0
300,-300,-1252.06,0
300,-300,-1172.10,0
300,-300,-1083.20,0
300,-300,-986.26,0
300,-300,-882.96,0
300,-300,-777.53,0
300,-300,-673.41,0
300,-300,-575.36,0
300,-300,-485.97,0
300,-300,-407.97,0
300,-300,-340.81,0
300,-300,-284.89,0
300,-300,-236.27,0
300,-300,-191.82,0
300,-300,-146.70,0
300,-300,-97.85,0
300,-300,-41.67,0
300,-300,20.44,0
300,-300,91.18,0
300,-300,167.23,0
300,-300,245.71,0
300,-300,321.59,0
300,-300,391.03,0
300,-300,449.16,0
300,-300,492.05,0
300,-300,515.79,0
300,-300,518.74,0
300,-300,499.40,0
300,-300,458.72,0
300,-300,397.18,0
300,-300,316.47,0
300,-300,218.09,0
300,-300,103.50,0
300,-300,-26.77,0
300,-300,-171.87,0
300,-300,-331.26,0
300,-300,-503.03,0
300,-300,-684.18,0
300,-300,-875.14,0
300,-300,-1073.85,0
300,-300,-1275.94,0
300,-300,-1480.58,0
300,-300,-1684.07,0
300,-300,-1883.97,0
300,-300,-2076.69,0
300,-300,-2261.19,0
300,-300,-2436.02,0
300,-300,-2601.94,0
300,-300,-2756.65,0
300,-300,-2901.23,0
300,-300,-3031.79,0
300,-300,-3149.40,0
300,-300,-3250.62,0
300,-300,-3332.58,0
300,-300,-3390.77,0
300,-300,-3422.15,0
300,-300,-3423.59,0
300,-300,-3394.44,0
300,-300,-3334.86,0
300,-300,-3248.40,0
300,-300,-3138.25,0
300,-300,-3012.20,0
300,-300,-2877.43,0
300,-300,-2741.75,0
300,-300,-2612.36,0
300,-300,-2495.36,0
300,-300,-2397.11,0
300,-300,-2318.04,0
300,-300,-2259.07,0
300,-300,-2217.81,0
300,-300,-2190.02,0
300,-300,-2171.22,0
300,-300,-2156.37,0
300,-300,-2140.70,0
300,-300,-2120.43,0
300,-300,-2093.46,0
300,-300,-2056.27,0
300,-300,-2010.98,0
300,-300,-1958.45,0
300,-300,-1900.18,0
300,-300,-1840.54,0
300,-300,-1779.60,0
300,-300,-1719.50,0
300,-300,-1662.13,0
300,-300,-1607.77,0
300,-300,-1556.53,0
300,-300,-1503.58,0
300,-300,-1451.86,0
300,-300,-1397.71,0
300,-300,-1343.89,0
300,-300,-1286.35,0
300,-300,-1225.73,0
300,-300,-1162.55,0
300,-300,-1097.58,0
300,-300,-1031.75,0
300,-300,-966.69,0
300,-300,-903.22,0
300,-300,-841.64,0
300,-300,-782.07,0
300,-300,-724.67,0
300,-300,-669.84,0
300,-300,-616.88,0
300,-300,-565.69,0
300,-300,-515.47,0
300,-300,-465.68,0
300,-300,-415.74,0
300,-300,-364.99,0
300,-300,-314.57,0
300,-300,-263.10,0
300,-300,-214.16,0
300,-300,-169.28,0
300,-300,-130.57,0
300,-300,-101.16,0
300,-300,-84.04,0
300,-300,-83.24,0
300,-300,-102.09,0
300,-300,-144.35,0
300,-300,-211.29,0
300,-300,-304.68,0
300,-300,-424.75,0
300,-300,-570.22,0
300,-300,-738.63,0
300,-300,-926.67,0
300,-300,-1130.13,0
300,-300,-1344.99,0
300,-300,-1566.19,0
300,-300,-1789.69,0
300,-300,-2010.65,0
300,-300,-2226.90,0
300,-300,-2432.17,0
300,-300,-2622.62,0
300,-300,-2794.73,0
300,-300,-2944.94,0
300,-300,-3070.10,0
300,-300,-3167.26,0
300,-300,-3234.27,0
300,-300,-3270.42,0
300,-300,-3276.23,0
300,-300,-3251.70,0
300,-300,-3201.41,0
300,-300,-3129.15,0
300,-300,-3040.34,0
300,-300,-2939.86,0
300,-300,-2833.43,0
300,-300,-2725.59,0
300,-300,-2621.27,0
300,-300,-2522.35,0
300,-300,-2430.40,0
300,-300,-2345.67,0
300,-300,-2267.70,0
300,-300,-2195.51,0
300,-300,-2128.21,0
300,-300,-2065.32,0
300,-300,-2006.71,0
300,-300,-1952.66,0
300,-300,-1901.17,0
300,-300,-1854.95,0
300,-300,-1812.15,0
300,-300,-1774.15,0
300,-300,-1740.10,0
300,-300,-1709.01,0
300,-300,-1678.52,0
300,-300,-1647.18,0
300,-300,-1612.48,0
300,-300,-1572.79,0
300,-300,-1527.19,0
300,-300,-1474.78,0
300,-300,-1418.84,0
300,-300,-1359.81,0
300,-300,-1299.57,0
300,-300,-1241.65,0
300,-300,-1188.40,0
300,-300,-1142.34,0
300,-300,-1104.65,0
300,-300,-1075.31,0
300,-300,-1053.59,0
300,-300,-1036.33,0
300,-300,-1024.76,0
300,-300,-1012.36,0
300,-300,-996.75,0
300,-300,-976.26,0
300,-300,-949.11,0
300,-300,-915.10,0
300,-300,-873.76,0
300,-300,-826.30,0
300,-300,-774.05,0
300,-300,-719.04,0
300,-300,-662.60,0
300,-300,-607.86,0
300,-300,-557.17,0
300,-300,-513.21,0
300,-300,-477.65,0
300,-300,-452.87,0
300,-300,-441.01,0
300,-300,-444.44,0
300,-300,-464.49,0
300,-300,-502.11,0
300,-300,-557.89,0
300,-300,-631.21,0
300,-300,-720.49,0
300,-300,-823.85,0
300,-300,-937.82,0
300,-300,-1059.42,0
300,-300,-1184.23,0
300,-300,-1310.63,0
300,-300,-1432.63,0
300,-300,-1548.77,0
300,-300,-1655.50,0
300,-300,-1752.81,0
300,-300,-1838.63,0
300,-300,-1913.58,0
300,-300,-1977.28,0
300,-300,-2030.98,0
300,-300,-2075.16,0
300,-300,-2112.50,0
300,-300,-2141.31,0
300,-300,-2164.00,0
300,-300,-2179.77,0
300,-300,-2189.84,0
300,-300,-2194.51,0
300,-300,-2194.88,0
300,-300,-2191.48,0
300,-300,-2186.26,0
300,-300,-2179.97,0
300,-300,-2174.39,0
300,-300,-2169.52,0
300,-300,-2167.42,0
300,-300,-2166.92,0
300,-300,-2168.49,0
300,-300,-2171.29,0
300,-300,-2174.98,0
300,-300,-2177.43,0
300,-300,-2177.88,0
300,-300,-2174.39,0
300,-300,-2165.47,0
300,-300,-2150.73,0
300,-300,-2128.84,0
300,-300,-2099.68,0
300,-300,-2064.02,0
300,-300,-2020.76,0
300,-300,-1971.12,0
300,-300,-1915.08,0
300,-300,-1853.88,0
300,-300,-1786.21,0
300,-300,-1715.00,0
300,-300,-1639.67,0
300,-300,-1564.10,0
300,-300,-1487.73,0
300,-300,-1412.02,0
300,-300,-1338.58,0
300,-300,-1269.40,0
300,-300,-1205.12,0
300,-300,-1147.64,0
300,-300,-1095.25,0
300,-300,-1049.35,0
300,-300,-1008.55,0
300,-300,-972.71,0
300,-300,-940.01,0
300,-300,-910.57,0
300,-300,-882.86,0
300,-300,-857.67,0
300,-300,-834.17,0
300,-300,-813.50,0
300,-300,-795.68,0
300,-300,-780.82,0
300,-300,-769.18,0
300,-300,-760.93,0
300,-300,-755.80,0
300,-300,-753.72,0
300,-300,-753.64,0
300,-300,-755.65,0
300,-300,-758.51,0
300,-300,-762.27,0
300,-300,-763.40,0
300,-300,-765.09,0
300,-300,-766.63,0
300,-300,-769.82,0
300,-300,-775.61,0
300,-300,-786.19,0
300,-300,-802.57,0
300,-300,-827.20,0
300,-300,-861.61,0
300,-300,-907.04,0
300,-300,-964.95,0
300,-300,-1034.75,0
300,-300,-1114.76,0
300,-300,-1204.50,0
300,-300,-1301.63,0
300,-300,-1403.96,0
300,-300,-1508.59,0
300,-300,-1612.37,0
300,-300,-1712.06,0
300,-300,-1806.82,0
300,-300,-1892.58,0
300,-300,-1968.62,0
300,-300,-2031.60,0
300,-300,-2083.09,0
300,-300,-2122.07,0
300,-300,-2149.57,0
300,-300,-2165.28,0
300,-300,-2171.42,0
300,-300,-2168.66,0
300,-300,-2160.06,0
300,-300,-2146.56,0
300,-300,-2131.45,0
300,-300,-2114.77,0
300,-300,-2100.96,0
300,-300,-2090.21,0
300,-300,-2084.27,0
300,-300,-2083.52,0
300,-300,-2088.48,0
300,-300,-2098.35,0
300,-300,-2110.80,0
300,-300,-2125.46,0
300,-300,-2140.96,0
300,-300,-2154.21,0
300,-300,-2164.30,0
300,-300,-2168.27,0
300,-300,-2165.06,0
300,-300,-2152.68,0
300,-300,-2131.85,0
300,-300,-2101.66,0
300,-300,-2065.00,0
300,-300,-2023.02,0
300,-300,-1978.68,0
300,-300,-1934.09,0
300,-300,-1890.74,0
300,-300,-1849.38,0
300,-300,-1810.30,0
300,-300,-1771.22,0
300,-300,-1730.74,0
300,-300,-1683.95,0
300,-300,-1628.80,0
300,-300,-1559.38,0
300,-300,-1474.59,0
300,-300,-1369.54,0
300,-300,-1244.76,0
300,-300,-1100.78,0
300,-300,-942.01,0
300,-300,-772.77,0
300,-300,-601.20,0
300,-300,-432.04,0
300,-300,-275.56,0
300,-300,-137.28,0
300,-300,-25.29,0
300,-300,57.59,0
300,-300,107.61,0
300,-300,124.87,0
300,-300,108.69,0
300,-300,62.22,0
300,-300,-12.50,0
300,-300,-111.28,0
300,-300,-231.29,0
300,-300,-368.77,0
300,-300,-520.85,0
300,-300,-685.09,0
300,-300,-859.11,0
300,-300,-1040.09,0
300,-300,-1225.33,0
300,-300,-1411.30,0
300,-300,-1596.01,0
300,-300,-1773.56,0
300,-300,-1940.47,0
300,-300,-2091.42,0
300,-300,-2224.64,0
300,-300,-2333.95,0
300,-300,-2417.39,0
300,-300,-2473.57,0
300,-300,-2502.42,0
300,-300,-2505.71,0
300,-300,-2486.46,0
300,-300,-2446.16,0
300,-300,-2388.73,0
300,-300,-2317.55,0
300,-300,-2236.01,0
300,-300,-2148.08,0
300,-300,-2058.37,0
300,-300,-1969.67,0
300,-300,-1886.27,0
300,-300,-1811.44,0
300,-300,-1748.88,0
300,-300,-1702.48,0
300,-300,-1675.84,0
300,-300,-1670.13,0
300,-300,-1688.24,0
300,-300,-1729.68,0
300,-300,-1793.42,0
300,-300,-1875.93,0
300,-300,-1973.32,0
300,-300,-2079.68,0
300,-300,-2189.43,0
300,-300,-2295.07,0
300,-300,-2390.26,0
300,-300,-2467.05,0
300,-300,-2521.31,0
300,-300,-2547.57,0
300,-300,-2544.30,0
300,-300,-2509.56,0
300,-300,-2444.95,0
300,-300,-2350.43,0
300,-300,-2231.74,0
300,-300,-2092.42,0
300,-300,-1937.83,0
300,-300,-1775.18,0
300,-300,-1609.24,0
300,-300,-1444.82,0
300,-300,-1287.96,0
300,-300,-1141.82,0
300,-300,-1009.97,0
300,-300,-891.89,0
300,-300,-790.78,0
300,-300,-704.99,0
300,-300,-634.51,0
300,-300,-576.90,0
300,-300,-531.03,0
300,-300,-494.29,0
300,-300,-466.02,0
300,-300,-444.43,0
300,-300,-428.20,0
300,-300,-415.69,0
300,-300,-405.02,0
300,-300,-394.50,0
300,-300,-384.21,0
300,-300,-370.96,0
300,-300,-355.18,0
300,-300,-335.35,0
300,-300,-311.12,0
300,-300,-281.90,0
300,-300,-248.99,0
300,-300,-212.47,0
300,-300,-176.04,0
300,-300,-140.80,0
300,-300,-112.51,0
300,-300,-92.70,0
300,-300,-85.49,0
300,-300,-92.42,0
300,-300,-116.18,0
300,-300,-156.33,0
300,-300,-213.03,0
300,-300,-284.12,0
300,-300,-369.36,0
300,-300,-465.64,0
300,-300,-571.13,0
300,-300,-683.86,0
300,-300,-802.74,0
300,-300,-926.43,0
300,-300,-1055.28,0
300,-300,-1188.66,0
300,-300,-1328.51,0
300,-300,-1473.26,0
300,-300,-1623.05,0
300,-300,-1774.75,0
300,-300,-1927.31,0
300,-300,-2077.26,0
300,-300,-2220.86,0
300,-300,-2354.47,0
300,-300,-2475.08,0
300,-300,-2580.37,0
300,-300,-2669.98,0
300,-300,-2743.22,0
300,-300,-2802.17,0
300,-300,-2848.34,0
300,-300,-2885.58,0
300,-300,-2916.12,0
300,-300,-2942.39,0
300,-300,-2965.53,0
300,-300,-2986.00,0
300,-300,-3002.76,0
300,-300,-3011.93,0
300,-300,-3012.44,0
300,-300,-3002.00,0
300,-300,-2978.34,0
300,-300,-2940.27,0
300,-300,-2888.04,0
300,-300,-2823.54,0
300,-300,-2748.90,0
300,-300,-2668.00,0
300,-300,-2584.04,0
300,-300,-2497.92,0
300,-300,-2413.50,0
300,-300,-2330.50,0
300,-300,-2247.98,0
300,-300,-2164.01,0
300,-300,-2075.78,0
300,-300,-1980.37,0
300,-300,-1874.60,0
300,-300,-1757.11,0
300,-300,-1627.92,0
300,-300,-1489.03,0
300,-300,-1342.98,0
300,-300,-1195.25,0
300,-300,-1049.40,0
300,-300,-910.79,0
300,-300,-783.15,0
300,-300,-669.97,0
300,-300,-572.03,0
300,-300,-489.46,0
300,-300,-421.72,0
300,-300,-366.51,0
300,-300,-320.45,0
300,-300,-283.22,0
300,-300,-251.44,0
300,-300,-225.33,0
300,-300,-206.07,0
300,-300,-196.61,0
300,-300,-199.80,0
300,-300,-219.05,0
300,-300,-256.72,0
300,-300,-313.52,0
300,-300,-390.63,0
300,-300,-486.95,0
300,-300,-600.87,0
300,-300,-728.60,0
300,-300,-865.77,0
300,-300,-1008.79,0
300,-300,-1153.31,0
300,-300,-1296.78,0
300,-300,-1436.81,0
300,-300,-1571.52,0
300,-300,-1700.00,0
300,-300,-1822.18,0
300,-300,-1937.04,0
300,-300,-2044.61,0
300,-300,-2143.94,0
300,-300,-2234.19,0
300,-300,-2313.37,0
300,-300,-2380.96,0
300,-300,-2434.61,0
300,-300,-2474.55,0
300,-300,-2499.62,0
300,-300,-2511.33,0
300,-300,-2509.86,0
300,-300,-2498.82,0
300,-300,-2480.22,0
300,-300,-2457.81,0
300,-300,-2433.33,0
300,-300,-2409.60,0
300,-300,-2386.09,0
300,-300,-2365.60,0
300,-300,-2344.56,0
300,-300,-2323.58,0
300,-300,-2300.00,0
300,-300,-2272.04,0
300,-300,-2236.85,0
300,-300,-2192.88,0
300,-300,-2138.35,0
300,-300,-2071.12,0
300,-300,-1993.07,0
300,-300,-1904.67,0
300,-300,-1806.56,0
300,-300,-1702.45,0
300,-300,-1594.26,0
300,-300,-1485.43,0
300,-300,-1379.53,0
300,-300,-1279.41,0
300,-300,-1187.96,0
300,-300,-1106.44,0
300,-300,-1036.29,0
300,-300,-977.76,0
300,-300,-932.22,0
300,-300,-896.29,0
300,-300,-868.30,0
300,-300,-846.39,0
300,-300,-828.19,0
300,-300,-811.92,0
300,-300,-796.51,0
300,-300,-782.99,0
300,-300,-769.57,0
300,-300,-757.24,0
300,-300,-749.05,0
300,-300,-744.12,0
300,-300,-743.65,0
300,-300,-748.01,0
300,-300,-756.86,0
300,-300,-768.73,0
300,-300,-781.47,0
300,-300,-791.53,0
300,-300,-798.03,0
300,-300,-797.65,0
300,-300,-789.89,0
300,-300,-774.59,0
300,-300,-754.95,0
300,-300,-733.50,0
300,-300,-714.92,0
300,-300,-704.04,0
300,-300,-705.62,0
300,-300,-723.91,0
300,-300,-761.90,0
300,-300,-819.41,0
300,-300,-896.11,0
300,-300,-990.28,0
300,-300,-1098.19,0
300,-300,-1215.23,0
300,-300,-1336.57,0
300,-300,-1457.95,0
300,-300,-1575.86,0
300,-300,-1688.43,0
300,-300,-1794.00,0
300,-300,-1892.52,0
300,-300,-1984.01,0
300,-300,-2068.13,0
300,-300,-2144.19,0
300,-300,-2212.00,0
300,-300,-2270.45,0
300,-300,-2318.80,0
300,-300,-2354.34,0
300,-300,-2377.51,0
300,-300,-2387.56,0
300,-300,-2385.48,0
300,-300,-2373.17,0
300,-300,-2353.15,0
300,-300,-2328.61,0
300,-300,-2303.28,0
300,-300,-2280.42,0
300,-300,-2262.72,0
300,-300,-2252.20,0
300,-300,-2249.33,0
300,-300,-2252.69,0
300,-300,-2260.52,0
300,-300,-2268.14,0
300,-300,-2271.79,0
300,-300,-2266.37,0
300,-300,-2248.47,0
300,-300,-2213.86,0
300,-300,-2161.69,0
300,-300,-2090.78,0
300,-300,-2003.84,0
300,-300,-1902.65,0
300,-300,-1791.89,0
300,-300,-1673.54,0
300,-300,-1552.36,0
300,-300,-1430.52,0
300,-300,-1310.64,0
300,-300,-1192.91,0
300,-300,-1077.61,0
300,-300,-958.42,0
300,-300,-838.15,0
300,-300,-714.91,0
300,-300,-586.39,0
300,-300,-453.91,0
300,-300,-319.90,0
300,-300,-188.62,0
300,-300,-65.95,0
300,-300,41.97,0
300,-300,129.33,0
300,-300,189.80,0
300,-300,220.70,0
300,-300,219.26,0
300,-300,187.54,0
300,-300,129.97,0
300,-300,53.12,0
300,-300,-35.08,0
300,-300,-125.65,0
300,-300,-210.81,0
300,-300,-284.59,0
300,-300,-342.81,0
300,-300,-384.29,0
300,-300,-409.84,0
300,-300,-424.74,0
300,-300,-434.13,0
300,-300,-443.22,0
300,-300,-457.88,0
300,-300,-480.68,0
300,-300,-514.16,0
300,-300,-557.33,0
300,-300,-607.87,0
300,-300,-661.72,0
300,-300,-716.24,0
300,-300,-766.66,0
300,-300,-811.97,0
300,-300,-852.42,0
300,-300,-890.69,0
300,-300,-930.32,0
300,-300,-976.78,0
300,-300,-1034.06,0
300,-300,-1107.48,0
300,-300,-1199.43,0
300,-300,-1309.17,0
300,-300,-1434.15,0
300,-300,-1569.68,0
300,-300,-1708.38,0
300,-300,-1842.62,0
300,-300,-1965.35,0
300,-300,-2071.88,0
300,-300,-2156.02,0
300,-300,-2220.51,0
300,-300,-2266.53,0
300,-300,-2298.50,0
300,-300,-2322.57,0
300,-300,-2344.33,0
300,-300,-2368.59,0
300,-300,-2398.45,0
300,-300,-2434.09,0
300,-300,-2473.13,0
300,-300,-2511.27,0
300,-300,-2544.29,0
300,-300,-2567.25,0
300,-300,-2574.82,0
300,-300,-2564.70,0
300,-300,-2536.69,0
300,-300,-2492.62,0
300,-300,-2436.94,0
300,-300,-2374.46,0
300,-300,-2307.61,0
300,-300,-2243.58,0
300,-300,-2185.90,0
300,-300,-2135.93,0
300,-300,-2093.15,0
300,-300,-2055.74,0
300,-300,-2021.01,0
300,-300,-1985.14,0
300,-300,-1945.12,0
300,-300,-1898.49,0
300,-300,-1842.76,0
300,-300,-1779.59,0
300,-300,-1711.86,0
300,-300,-1643.37,0
300,-300,-1577.76,0
300,-300,-1519.25,0
300,-300,-1471.73,0
300,-300,-1436.87,0
300,-300,-1415.27,0
300,-300,-1405.32,0
300,-300,-1404.50,0
300,-300,-1407.68,0
300,-300,-1409.73,0
300,-300,-1410.81,0
300,-300,-1403.11,0
300,-300,-1385.21,0
300,-300,-1357.07,0
300,-300,-1319.50,0
300,-300,-1274.54,0
300,-300,-1225.25,0
300,-300,-1172.11,0
300,-300,-1122.48,0
300,-300,-1079.01,0
300,-300,-1045.31,0
300,-300,-1024.14,0
300,-300,-1017.17,0
300,-300,-1026.33,0
300,-300,-1051.07,0
300,-300,-1091.36,0
300,-300,-1145.13,0
300,-300,-1208.06,0
300,-300,-1278.21,0
300,-300,-1351.10,0
300,-300,-1423.26,0
300,-300,-1492.69,0
300,-300,-1555.95,0
300,-300,-1612.57,0
300,-300,-1661.80,0
300,-300,-1704.90,0
300,-300,-1742.48,0
300,-300,-1775.85,0
300,-300,-1805.69,0
300,-300,-1833.49,0
300,-300,-1859.36,0
300,-300,-1882.51,0
300,-300,-1901.17,0
300,-300,-1913.17,0
300,-300,-1916.13,0
300,-300,-1908.87,0
300,-300,-1893.10,0
300,-300,-1867.52,0
300,-300,-1835.30,0
300,-300,-1801.62,0
300,-300,-1770.84,0
300,-300,-1748.70,0
300,-300,-1741.32,0
300,-300,-1753.42,0
300,-300,-1787.23,0
300,-300,-1845.11,0
300,-300,-1927.48,0
300,-300,-2031.17,0
300,-300,-2151.08,0
300,-300,-2285.23,0
300,-300,-2425.04,0
300,-300,-2566.93,0
300,-300,-2706.23,0
300,-300,-2840.23,0
300,-300,-2965.70,0
300,-300,-3081.00,0
300,-300,-3183.06,0
300,-300,-3270.14,0
300,-300,-3338.41,0
300,-300,-3385.38,0
300,-300,-3405.99,0
300,-300,-3398.03,0
300,-300,-3359.50,0
300,-300,-3289.69,0
300,-300,-3189.44,0
300,-300,-3062.29,0
300,-300,-2913.28,0
300,-300,-2749.01,0
300,-300,-2580.07,0
300,-300,-2412.80,0
300,-300,-2254.99,0
300,-300,-2112.92,0
300,-300,-1991.05,0
300,-300,-1891.25,0
300,-300,-1811.49,0
300,-300,-1751.32,0
300,-300,-1704.31,0
300,-300,-1665.49,0
300,-300,-1630.78,0
300,-300,-1595.98,0
300,-300,-1558.16,0
300,-300,-1517.14,0
300,-300,-1474.14,0
300,-300,-1430.90,0
300,-300,-1388.88,0
300,-300,-1348.02,0
300,-300,-1311.02,0
300,-300,-1277.73,0
300,-300,-1246.62,0
300,-300,-1217.48,0
300,-300,-1188.30,0
300,-300,-1157.97,0
300,-300,-1125.89,0
300,-300,-1092.83,0
300,-300,-1060.06,0
300,-300,-1030.78,0
300,-300,-1006.07,0
300,-300,-987.42,0
300,-300,-978.67,0
300,-300,-976.04,0
300,-300,-978.38,0
300,-300,-982.22,0
300,-300,-984.85,0
300,-300,-984.39,0
300,-300,-976.88,0
300,-300,-963.87,0
300,-300,-942.96,0
300,-300,-916.89,0
300,-300,-891.04,0
300,-300,-867.58,0
300,-300,-850.77,0
300,-300,-844.06,0
300,-300,-847.99,0
300,-300,-862.84,0
300,-300,-885.90,0
300,-300,-910.42,0
300,-300,-933.57,0
300,-300,-949.36,0
300,-300,-954.37,0
300,-300,-946.70,0
300,-300,-926.07,0
300,-300,-894.48,0
300,-300,-856.52,0
300,-300,-817.76,0
300,-300,-778.61,0
300,-300,-748.97,0
300,-300,-728.96,0
300,-300,-717.37,0
300,-300,-714.95,0
300,-300,-718.45,0
300,-300,-722.89,0
300,-300,-723.50,0
300,-300,-715.72,0
300,-300,-694.32,0
300,-300,-659.15,0
300,-300,-609.82,0
300,-300,-547.74,0
300,-300,-473.84,0
300,-300,-391.73,0
300,-300,-304.20,0
300,-300,-213.55,0
300,-300,-121.81,0
300,-300,-28.46,0
300,-300,65.10,0
300,-300,160.90,0
300,-300,256.96,0
300,-300,352.39,0
300,-300,444.06,0
300,-300,529.76,0
300,-300,604.99,0
300,-300,666.04,0
300,-300,708.82,0
300,-300,731.00,0
300,-300,729.18,0
300,-300,702.78,0
300,-300,651.03,0
300,-300,575.48,0
300,-300,477.77,0
300,-300,360.08,0
300,-300,223.83,0
300,-300,71.42,0
300,-300,-96.66,0
300,-300,-278.38,0
300,-300,-468.86,0
300,-300,-667.07,0
300,-300,-869.79,0
300,-300,-1069.98,0
300,-300,-1265.12,0
300,-300,-1450.35,0
300,-300,-1622.22,0
300,-300,-1777.41,0
300,-300,-1915.41,0
300,-300,-2036.54,0
300,-300,-2141.17,0
300,-300,-2235.82,0
300,-300,-2323.53,0
300,-300,-2411.06,0
300,-300,-2500.62,0
300,-300,-2593.99,0
300,-300,-2692.30,0
300,-300,-2793.50,0
300,-300,-2894.15,0
300,-300,-2990.18,0
300,-300,-3076.95,0
300,-300,-3150.29,0
300,-300,-3207.51,0
300,-300,-3245.31,0
300,-300,-3265.28,0
300,-300,-3268.86,0
300,-300,-3258.76,0
300,-300,-3237.21,0
300,-300,-3207.47,0
300,-300,-3172.13,0
300,-300,-3130.10,0
300,-300,-3079.50,0
300,-300,-3019.87,0
300,-300,-2947.03,0
300,-300,-2861.73,0
300,-300,-2762.66,0
300,-300,-2650.15,0
300,-300,-2526.27,0
300,-300,-2394.59,0
300,-300,-2258.25,0
300,-300,-2124.17,0
300,-300,-1996.67,0
300,-300,-1879.36,0
300,-300,-1777.29,0
300,-300,-1690.23,0
300,-300,-1618.44,0
300,-300,-1562.15,0
300,-300,-1520.15,0
300,-300,-1491.33,0
300,-300,-1474.28,0
300,-300,-1469.73,0
300,-300,-1476.64,0
300,-300,-1499.72,0
300,-300,-1534.10,0
300,-300,-1581.02,0
300,-300,-1638.26,0
300,-300,-1703.23,0
300,-300,-1769.85,0
300,-300,-1832.28,0
300,-300,-1883.96,0
300,-300,-1919.33,0
300,-300,-1934.95,0
300,-300,-1926.12,0
300,-300,-1892.72,0
300,-300,-1836.03,0
300,-300,-1759.65,0
300,-300,-1669.59,0
300,-300,-1571.73,0
300,-300,-1472.59,0
300,-300,-1379.69,0
300,-300,-1298.15,0
300,-300,-1230.49,0
300,-300,-1179.87,0
300,-300,-1145.69,0
300,-300,-1127.32,0
300,-300,-1121.96,0
300,-300,-1127.61,0
300,-300,-1140.57,0
300,-300,-1154.41,0
300,-300,-1168.63,0
300,-300,-1180.32,0
300,-300,-1186.47,0
300,-300,-1186.82,0
300,-300,-1181.83,0
300,-300,-1173.44,0
300,-300,-1164.54,0
300,-300,-1159.04,0
300,-300,-1161.68,0
300,-300,-1175.94,0
300,-300,-1207.13,0
300,-300,-1258.12,0
300,-300,-1333.69,0
300,-300,-1432.62,0
300,-300,-1552.12,0
300,-300,-1688.53,0
300,-300,-1834.60,0
300,-300,-1983.21,0
300,-300,-2125.73,0
300,-300,-2256.80,0
300,-300,-2367.24,0
300,-300,-2452.37,0
300,-300,-2511.47,0
300,-300,-2541.38,0
300,-300,-2544.04,0
300,-300,-2522.67,0
300,-300,-2481.06,0
300,-300,-2424.48,0
300,-300,-2356.00,0
300,-300,-2279.43,0
300,-300,-2195.95,0
300,-300,-2106.78,0
300,-300,-2011.84,0
300,-300,-1912.42,0
300,-300,-1808.94,0
300,-300,-1704.11,0
300,-300,-1600.42,0
300,-300,-1502.01,0
300,-300,-1412.65,0
300,-300,-1338.73,0
300,-300,-1282.47,0
300,-300,-1245.78,0
300,-300,-1231.10,0
300,-300,-1237.84,0
300,-300,-1262.88,0
300,-300,-1302.53,0
300,-300,-1352.58,0
300,-300,-1409.37,0
300,-300,-1469.11,0
300,-300,-1530.12,0
300,-300,-1589.91,0
300,-300,-1649.34,0
300,-300,-1706.01,0
300,-300,-1758.74,0
300,-300,-1805.31,0
300,-300,-1843.44,0
300,-300,-1868.29,0
300,-300,-1875.78,0
300,-300,-1861.35,0
300,-300,-1823.11,0
300,-300,-1759.06,0
300,-300,-1671.19,0
300,-300,-1561.69,0
300,-300,-1437.22,0
300,-300,-1306.37,0
300,-300,-1179.24,0
300,-300,-1064.64,0
300,-300,-971.58,0
300,-300,-903.02,0
300,-300,-865.04,0
300,-300,-856.08,0
300,-300,-873.39,0
300,-300,-910.26,0
300,-300,-961.24,0
300,-300,-1019.38,0
300,-300,-1078.76,0
300,-300,-1134.50,0
300,-300,-1184.60,0
300,-300,-1224.27,0
300,-300,-1254.36,0
300,-300,-1274.11,0
300,-300,-1282.46,0
300,-300,-1278.74,0
300,-300,-1262.26,0
300,-300,-1230.71,0
300,-300,-1182.32,0
300,-300,-1114.22,0
300,-300,-1026.96,0
300,-300,-922.50,0
300,-300,-803.98,0
300,-300,-680.76,0
300,-300,-558.36,0
300,-300,-445.85,0
300,-300,-353.40,0
300,-300,-288.41,0
300,-300,-256.48,0
300,-300,-258.81,0
300,-300,-294.68,0
300,-300,-360.76,0
300,-300,-448.01,0
300,-300,-549.90,0
300,-300,-656.76,0
300,-300,-760.34,0
300,-300,-856.14,0
300,-300,-939.32,0
300,-300,-1010.00,0
300,-300,-1068.52,0
300,-300,-1117.82,0
300,-300,-1164.02,0
300,-300,-1208.08,0
300,-300,-1250.70,0
300,-300,-1295.12,0
300,-300,-1339.62,0
300,-300,-1383.26,0
300,-300,-1422.91,0
300,-300,-1456.89,0
300,-300,-1483.45,0
300,-300,-1503.01,0
300,-300,-1515.99,0
300,-300,-1526.71,0
300,-300,-1538.93,0
300,-300,-1559.06,0
300,-300,-1591.88,0
300,-300,-1642.12,0
300,-300,-1712.42,0
300,-300,-1804.70,0
300,-300,-1918.29,0
300,-300,-2052.23,0
300,-300,-2201.98,0
300,-300,-2363.36,0
300,-300,-2530.26,0
300,-300,-2699.56,0
300,-300,-2866.73,0
300,-300,-3028.44,0
300,-300,-3180.91,0
300,-300,-3321.27,0
300,-300,-3445.84,0
300,-300,-3549.68,0
300,-300,-3630.69,0
300,-300,-3686.05,0
300,-300,-3711.83,0
300,-300,-3705.33,0
300,-300,-3665.00,0
300,-300,-3590.29,0
300,-300,-3482.63,0
300,-300,-3344.96,0
300,-300,-3181.70,0
300,-300,-2999.03,0
300,-300,-2803.19,0
300,-300,-2601.24,0
300,-300,-2398.72,0
300,-300,-2201.65,0
300,-300,-2014.12,0
300,-300,-1839.03,0
300,-300,-1676.95,0
300,-300,-1528.62,0
300,-300,-1394.27,0
300,-300,-1277.35,0
300,-300,-1173.17,0
300,-300,-1086.66,0
300,-300,-1014.94,0
300,-300,-959.76,0
300,-300,-920.47,0
300,-300,-897.19,0
300,-300,-887.40,0
300,-300,-889.17,0
300,-300,-897.82,0
300,-300,-909.50,0
300,-300,-920.50,0
300,-300,-929.88,0
300,-300,-933.81,0
300,-300,-932.65,0
300,-300,-926.10,0
300,-300,-916.50,0
300,-300,-905.09,0
300,-300,-894.75,0
300,-300,-886.46,0
300,-300,-880.84,0
300,-300,-878.15,0
300,-300,-875.11,0
300,-300,-869.47,0
300,-300,-859.94,0
300,-300,-844.32,0
300,-300,-822.38,0
300,-300,-794.35,0
300,-300,-763.83,0
300,-300,-732.67,0
300,-300,-708.01,0
300,-300,-693.99,0
300,-300,-693.70,0
300,-300,-709.80,0
300,-300,-743.23,0
300,-300,-791.03,0
300,-300,-849.27,0
300,-300,-910.83,0
300,-300,-969.73,0
300,-300,-1016.37,0
300,-300,-1047.34,0
300,-300,-1059.64,0
300,-300,-1050.11,0
300,-300,-1023.86,0
300,-300,-985.85,0
300,-300,-942.09,0
300,-300,-900.54,0
300,-300,-866.83,0
300,-300,-846.51,0
300,-300,-839.73,0
300,-300,-847.44,0
300,-300,-865.10,0
300,-300,-887.41,0
300,-300,-907.09,0
300,-300,-917.38,0
300,-300,-911.89,0
300,-300,-886.83,0
300,-300,-841.39,0
300,-300,-778.64,0
300,-300,-703.91,0
300,-300,-625.16,0
300,-300,-549.79,0
300,-300,-486.44,0
300,-300,-441.77,0
300,-300,-419.52,0
300,-300,-419.67,0
300,-300,-440.14,0
300,-300,-474.52,0
300,-300,-516.84,0
300,-300,-556.80,0
300,-300,-589.91,0
300,-300,-611.00,0
300,-300,-615.35,0
300,-300,-602.36,0
300,-300,-575.20,0
300,-300,-538.92,0
300,-300,-499.47,0
300,-300,-462.72,0
300,-300,-433.63,0
300,-300,-412.91,0
300,-300,-403.48,0
300,-300,-402.53,0
300,-300,-407.63,0
300,-300,-414.66,0
300,-300,-419.40,0
300,-300,-418.47,0
300,-300,-411.25,0
300,-300,-398.33,0
300,-300,-381.63,0
300,-300,-367.47,0
300,-300,-360.72,0
300,-300,-365.28,0
300,-300,-390.97,0
300,-300,-440.82,0
300,-300,-517.10,0
300,-300,-617.96,0
300,-300,-739.97,0
300,-300,-876.03,0
300,-300,-1021.51,0
300,-300,-1168.18,0
300,-300,-1310.05,0
300,-300,-1441.97,0
300,-300,-1559.03,0
300,-300,-1659.52,0
300,-300,-1744.54,0
300,-300,-1815.95,0
300,-300,-1877.26,0
300,-300,-1935.12,0
300,-300,-1988.94,0
300,-300,-2040.83,0
300,-300,-2089.97,0
300,-300,-2135.07,0
300,-300,-2172.02,0
300,-300,-2198.53,0
300,-300,-2211.98,0
300,-300,-2210.10,0
300,-300,-2192.87,0
300,-300,-2161.15,0
300,-300,-2118.43,0
300,-300,-2070.11,0
300,-300,-2023.27,0
300,-300,-1983.71,0
300,-300,-1958.15,0
300,-300,-1950.26,0
300,-300,-1964.43,0
300,-300,-2000.40,0
300,-300,-2056.97,0
300,-300,-2129.38,0
300,-300,-2213.29,0
300,-300,-2302.16,0
300,-300,-2392.38,0
300,-300,-2477.82,0
300,-300,-2555.27,0
300,-300,-2622.70,0
300,-300,-2679.71,0
300,-300,-2726.82,0
300,-300,-2765.43,0
300,-300,-2795.48,0
300,-300,-2818.72,0
300,-300,-2832.84,0
300,-300,-2838.42,0
300,-300,-2831.37,0
300,-300,-2808.93,0
300,-300,-2768.29,0
300,-300,-2707.25,0
300,-300,-2625.08,0
300,-300,-2522.29,0
300,-300,-2402.14,0
300,-300,-2268.50,0
300,-300,-2125.31,0
300,-300,-1979.08,0
300,-300,-1835.90,0
300,-300,-1702.12,0
300,-300,-1583.11,0
300,-300,-1482.25,0
300,-300,-1400.61,0
300,-300,-1335.14,0
300,-300,-1284.44,0
300,-300,-1245.77,0
300,-300,-1213.59,0
300,-300,-1187.31,0
300,-300,-1162.13,0
300,-300,-1138.11,0
300,-300,-1116.28,0
300,-300,-1099.28,0
300,-300,-1090.21,0
300,-300,-1096.89,0
300,-300,-1120.58,0
300,-300,-1166.70,0
300,-300,-1236.64,0
300,-300,-1333.13,0
300,-300,-1452.68,0
300,-300,-1592.58,0
300,-300,-1747.28,0
300,-300,-1910.36,0
300,-300,-2074.93,0
300,-300,-2239.64,0
300,-300,-2392.87,0
300,-300,-2531.89,0
300,-300,-2654.41,0
300,-300,-2756.75,0
300,-300,-2839.28,0
300,-300,-2902.80,0
300,-300,-2947.47,0
300,-300,-2975.22,0
300,-300,-2986.84,0
300,-300,-2983.14,0
300,-300,-2966.60,0
300,-300,-2941.64,0
300,-300,-2909.04,0
300,-300,-2872.26,0
300,-300,-2835.63,0
300,-300,-2803.38,0
300,-300,-2779.21,0
300,-300,-2766.51,0
300,-300,-2766.30,0
300,-300,-2771.53,0
300,-300,-2787.66,0
300,-300,-2804.90,0
300,-300,-2821.94,0
300,-300,-2833.11,0
300,-300,-2831.81,0
300,-300,-2813.07,0
300,-300,-2772.83,0
300,-300,-2709.00,0
300,-300,-2622.29,0
300,-300,-2513.88,0
300,-300,-2385.51,0
300,-300,-2240.39,0
300,-300,-2081.33,0
300,-300,-1909.11,0
300,-300,-1724.78,0
300,-300,-1527.78,0
300,-300,-1317.86,0
300,-300,-1095.63,0
300,-300,-869.12,0
300,-300,-634.55,0
300,-300,-397.93,0
300,-300,-165.70,0
300,-300,55.28,0
300,-300,258.00,0
300,-300,435.33,0
300,-300,581.57,0
300,-300,691.80,0
300,-300,762.94,0
300,-300,791.03,0
300,-300,778.22,0
300,-300,724.97,0
300,-300,632.28,0
300,-300,502.68,0
300,-300,336.14,0
300,-300,133.87,0
300,-300,-104.14,0
300,-300,-376.56,0
300,-300,-681.45,0
300,-300,-1013.90,0
300,-300,-1368.35,0
300,-300,-1737.32,0
300,-300,-2109.24,0
300,-300,-2472.63,0
300,-300,-2816.22,0
300,-300,-3128.89,0
300,-300,-3401.26,0
300,-300,-3627.74,0
300,-300,-3805.05,0
300,-300,-3933.86,0
300,-300,-4017.26,0
300,-300,-4063.88,0
300,-300,-4078.14,0
300,-300,-4064.96,0
300,-300,-4029.01,0
300,-300,-3971.81,0
300,-300,-3893.40,0
300,-300,-3792.17,0
300,-300,-3665.34,0
300,-300,-3510.29,0
300,-300,-3325.69,0
300,-300,-3108.76,0
300,-300,-2864.79,0
300,-300,-2597.35,0
300,-300,-2313.16,0
300,-300,-2019.80,0
300,-300,-1725.62,0
300,-300,-1436.83,0
300,-300,-1159.31,0
300,-300,-893.33,0
300,-300,-645.58,0
300,-300,-409.94,0
300,-300,-191.62,0
300,-300,10.05,0
300,-300,193.80,0
300,-300,356.84,0
300,-300,494.64,0
300,-300,602.65,0
300,-300,674.80,0
300,-300,710.63,0
300,-300,706.97,0
300,-300,666.73,0
300,-300,596.99,0
300,-300,508.09,0
300,-300,411.00,0
300,-300,318.22,0
300,-300,241.03,0
300,-300,187.35,0
300,-300,158.55,0
300,-300,157.53,0
300,-300,180.95,0
300,-300,214.92,0
300,-300,256.58,0
300,-300,295.57,0
300,-300,322.78,0
300,-300,333.09,0
300,-300,324.05,0
300,-300,297.82,0
300,-300,255.73,0
300,-300,207.60,0
300,-300,159.01,0
300,-300,115.62,0
300,-300,79.40,0
300,-300,50.96,0
300,-300,27.65,0
300,-300,4.73,0
300,-300,-23.81,0
300,-300,-64.17,0
300,-300,-125.41,0
300,-300,-207.21,0
300,-300,-304.59,0
300,-300,-421.24,0
300,-300,-552.58,0
300,-300,-691.71,0
300,-300,-832.82,0
300,-300,-970.71,0
300,-300,-1103.43,0
300,-300,-1229.96,0
300,-300,-1354.65,0
300,-300,-1479.69,0
300,-300,-1607.62,0
300,-300,-1743.46,0
300,-300,-1888.93,0
300,-300,-2043.23,0
300,-300,-2203.86,0
300,-300,-2365.31,0
300,-300,-2522.59,0
300,-300,-2669.61,0
300,-300,-2803.30,0
300,-300,-2920.44,0
300,-300,-3022.49,0
300,-300,-3110.53,0
300,-300,-3188.73,0
300,-300,-3261.77,0
300,-300,-3335.42,0
300,-300,-3413.22,0
300,-300,-3497.02,0
300,-300,-3584.91,0
300,-300,-3674.28,0
300,-300,-3757.77,0
300,-300,-3828.75,0
300,-300,-3878.62,0
300,-300,-3900.07,0
300,-300,-3887.20,0
300,-300,-3838.28,0
300,-300,-3752.70,0
300,-300,-3634.84,0
300,-300,-3489.56,0
300,-300,-3324.64,0
300,-300,-3146.69,0
300,-300,-2963.85,0
300,-300,-2781.84,0
300,-300,-2605.63,0
300,-300,-2437.01,0
300,-300,-2277.98,0
300,-300,-2127.65,0
300,-300,-1986.18,0
300,-300,-1852.92,0
300,-300,-1727.38,0
300,-300,-1609.39,0
300,-300,-1503.88,0
300,-300,-1408.42,0
300,-300,-1327.02,0
300,-300,-1260.96,0
300,-300,-1212.62,0
300,-300,-1181.47,0
300,-300,-1167.02,0
300,-300,-1166.82,0
300,-300,-1177.38,0
300,-300,-1193.46,0
300,-300,-1213.92,0
300,-300,-1231.68,0
300,-300,-1244.56,0
300,-300,-1250.31,0
300,-300,-1247.92,0
300,-300,-1236.80,0
300,-300,-1218.65,0
300,-300,-1194.10,0
300,-300,-1166.66,0
300,-300,-1134.70,0
300,-300,-1103.26,0
300,-300,-1072.87,0
300,-300,-1044.95,0
300,-300,-1019.10,0
300,-300,-995.69,0
300,-300,-973.26,0
300,-300,-952.16,0
300,-300,-930.50,0
300,-300,-910.91,0
300,-300,-888.25,0
300,-300,-866.93,0
300,-300,-845.78,0
300,-300,-826.23,0
300,-300,-808.08,0
300,-300,-792.73,0
300,-300,-780.59,0
300,-300,-772.35,0
300,-300,-768.20,0
300,-300,-769.80,0
300,-300,-771.85,0
300,-300,-778.88,0
300,-300,-787.93,0
300,-300,-798.09,0
300,-300,-806.34,0
300,-300,-812.37,0
300,-300,-814.83,0
300,-300,-815.40,0
300,-300,-812.52,0
300,-300,-809.60,0
300,-300,-805.53,0
300,-300,-804.22,0
300,-300,-806.37,0
300,-300,-814.17,0
300,-300,-827.48,0
300,-300,-847.59,0
300,-300,-874.01,0
300,-300,-907.87,0
300,-300,-947.45,0
300,-300,-993.38,0
300,-300,-1044.06,0
300,-300,-1100.37,0
300,-300,-1161.06,0
300,-300,-1227.23,0
300,-300,-1297.18,0
300,-300,-1371.26,0
300,-300,-1447.00,0
300,-300,-1523.35,0
300,-300,-1597.85,0
300,-300,-1669.29,0
300,-300,-1733.74,0
300,-300,-1791.07,0
300,-300,-1839.09,0
300,-300,-1878.06,0
300,-300,-1907.34,0
300,-300,-1928.80,0
300,-300,-1943.20,0
300,-300,-1953.33,0
300,-300,-1961.35,0
300,-300,-1968.94,0
300,-300,-1975.79,0
300,-300,-1982.96,0
300,-300,-1988.15,0
300,-300,-1990.42,0
300,-300,-1986.43,0
300,-300,-1974.91,0
300,-300,-1951.70,0
300,-300,-1918.10,0
300,-300,-1872.71,0
300,-300,-1816.92,0
300,-300,-1753.60,0
300,-300,-1686.11,0
300,-300,-1617.46,0
300,-300,-1552.25,0
300,-300,-1491.83,0
300,-300,-1439.60,0
300,-300,-1394.81,0
300,-300,-1358.23,0
300,-300,-1327.59,0
300,-300,-1300.75,0
300,-300,-1275.25,0
300,-300,-1248.92,0
300,-300,-1219.33,0
300,-300,-1185.91,0
300,-300,-1148.25,0
300,-300,-1107.63,0
300,-300,-1065.27,0
300,-300,-1022.56,0
300,-300,-981.11,0
300,-300,-943.20,0
300,-300,-908.16,0
300,-300,-876.95,0
300,-300,-848.68,0
300,-300,-823.33,0
300,-300,-800.17,0
300,-300,-779.07,0
300,-300,-760.39,0
300,-300,-745.53,0
300,-300,-734.69,0
300,-300,-731.47,0
300,-300,-735.61,0
300,-300,-750.53,0
300,-300,-776.20,0
300,-300,-813.86,0
300,-300,-862.62,0
300,-300,-921.09,0
300,-300,-986.77,0
300,-300,-1058.49,0
300,-300,-1132.33,0
300,-300,-1206.59,0
300,-300,-1278.88,0
300,-300,-1348.74,0
300,-300,-1414.77,0
300,-300,-1477.98,0
300,-300,-1538.17,0
300,-300,-1596.11,0
300,-300,-1652.01,0
300,-300,-1706.27,0
300,-300,-1756.82,0
300,-300,-1804.76,0
300,-300,-1847.77,0
300,-300,-1885.46,0
300,-300,-1915.84,0
300,-300,-1938.84,0
300,-300,-1953.83,0
300,-300,-1962.85,0
300,-300,-1965.97,0
300,-300,-1966.05,0
300,-300,-1963.89,0
300,-300,-1962.88,0
300,-300,-1963.62,0
300,-300,-1967.91,0
300,-300,-1974.93,0
300,-300,-1985.00,0
300,-300,-1996.07,0
300,-300,-2006.58,0
300,-300,-2013.16,0
300,-300,-2014.86,0
300,-300,-2009.35,0
300,-300,-1995.60,0
300,-300,-1972.88,0
300,-300,-1942.35,0
300,-300,-1904.55,0
300,-300,-1861.84,0
300,-300,-1816.09,0
300,-300,-1770.17,0
300,-300,-1725.62,0
300,-300,-1684.82,0
300,-300,-1648.89,0
300,-300,-1618.04,0
300,-300,-1592.46,0
300,-300,-1572.30,0
300,-300,-1556.18,0
300,-300,-1543.36,0
300,-300,-1531.77,0
300,-300,-1520.58,0
300,-300,-1508.46,0
300,-300,-1496.31,0
300,-300,-1481.81,0
300,-300,-1465.73,0
300,-300,-1447.43,0
300,-300,-1427.65,0
300,-300,-1406.13,0
300,-300,-1383.24,0
300,-300,-1358.56,0
300,-300,-1331.81,0
300,-300,-1303.34,0
300,-300,-1273.16,0
300,-300,-1240.62,0
300,-300,-1206.33,0
300,-300,-1170.52,0
300,-300,-1134.37,0
300,-300,-1098.83,0
300,-300,-1065.61,0
300,-300,-1036.27,0
300,-300,-1012.98,0
300,-300,-997.29,0
300,-300,-990.66,0
300,-300,-994.65,0
300,-300,-1009.49,0
300,-300,-1035.23,0
300,-300,-1071.04,0
300,-300,-1115.45,0
300,-300,-1166.86,0
300,-300,-1224.00,0
300,-300,-1283.96,0
300,-300,-1345.54,0
300,-300,-1406.72,0
300,-300,-1466.13,0
300,-300,-1523.67,0
300,-300,-1578.39,0
300,-300,-1630.24,0
300,-300,-1678.49,0
300,-300,-1723.95,0
300,-300,-1766.75,0
300,-300,-1805.56,0
300,-300,-1840.28,0
300,-300,-1871.34,0
300,-300,-1897.02,0
300,-300,-1918.38,0
300,-300,-1934.80,0
300,-300,-1947.54,0
300,-300,-1956.83,0
300,-300,-1964.31,0
300,-300,-1971.34,0
300,-300,-1979.89,0
300,-300,-1991.01,0
300,-300,-2005.46,0
300,-300,-2023.46,0
300,-300,-2044.78,0
300,-300,-2068.06,0
300,-300,-2092.21,0
300,-300,-2114.70,0
300,-300,-2134.85,0
300,-300,-2148.76,0
300,-300,-2156.44,0
300,-300,-2154.97,0
300,-300,-2144.72,0
300,-300,-2125.02,0
300,-300,-2096.30,0
300,-300,-2059.31,0
300,-300,-2015.41,0
300,-300,-1965.39,0
300,-300,-1910.83,0
300,-300,-1853.77,0
300,-300,-1795.12,0
300,-300,-1736.03,0
300,-300,-1678.73,0
300,-300,-1623.09,0
300,-300,-1570.11,0
300,-300,-1519.91,0
300,-300,-1473.04,0
300,-300,-1428.82,0
300,-300,-1387.13,0
300,-300,-1347.19,0
300,-300,-1309.07,0
300,-300,-1271.44,0
300,-300,-1234.69,0
300,-300,-1197.40,0
300,-300,-1160.26,0
300,-300,-1122.59,0
300,-300,-1085.35,0
300,-300,-1047.87,0
300,-300,-1011.27,0
300,-300,-974.50,0
300,-300,-938.99,0
300,-300,-904.15,0
300,-300,-870.17,0
300,-300,-836.61,0
300,-300,-804.43,0
300,-300,-773.97,0
300,-300,-746.38,0
300,-300,-722.42,0
300,-300,-704.21,0
300,-300,-693.51,0
300,-300,-691.46,0
300,-300,-700.68,0
300,-300,-721.05,0
300,-300,-753.18,0
300,-300,-797.36,0
300,-300,-851.66,0
300,-300,-915.20,0
300,-300,-984.98,0
300,-300,-1059.59,0
300,-300,-1136.27,0
300,-300,-1213.50,0
300,-300,-1289.30,0
300,-300,-1363.33,0
300,-300,-1434.50,0
300,-300,-1503.17,0
300,-300,-1569.49,0
300,-300,-1633.40,0
300,-300,-1694.74,0
300,-300,-1753.93,0
300,-300,-1809.34,0
300,-300,-1860.10,0
300,-300,-1905.28,0
300,-300,-1943.85,0
300,-300,-1974.66,0
300,-300,-1997.75,0
300,-300,-2012.74,0
300,-300,-2021.31,0
300,-300,-2024.99,0
300,-300,-2025.51,0
300,-300,-2025.00,0
300,-300,-2024.79,0
300,-300,-2026.59,0
300,-300,-2031.87,0
300,-300,-2039.37,0
300,-300,-2049.02,0
300,-300,-2058.82,0
300,-300,-2068.13,0
300,-300,-2075.36,0
300,-300,-2078.50,0
300,-300,-2077.03,0
300,-300,-2070.06,0
300,-300,-2056.84,0
300,-300,-2038.55,0
300,-300,-2015.01,0
300,-300,-1986.93,0
300,-300,-1954.95,0
300,-300,-1919.59,0
300,-300,-1880.08,0
300,-300,-1838.75,0
300,-300,-1793.92,0
300,-300,-1748.82,0
300,-300,-1701.87,0
300,-300,-1655.65,0
300,-300,-1610.36,0
300,-300,-1568.07,0
300,-300,-1529.63,0
300,-300,-1496.43,0
300,-300,-1467.13,0
300,-300,-1444.33,0
300,-300,-1426.00,0
300,-300,-1410.85,0
300,-300,-1397.35,0
300,-300,-1384.73,0
300,-300,-1369.97,0
300,-300,-1352.59,0
300,-300,-1331.13,0
300,-300,-1305.93,0
300,-300,-1276.87,0
300,-300,-1245.05,0
300,-300,-1211.42,0
300,-300,-1177.51,0
300,-300,-1143.52,0
300,-300,-1111.56,0
300,-300,-1081.14,0
300,-300,-1053.81,0
300,-300,-1028.64,0
300,-300,-1006.61,0
300,-300,-986.57,0
300,-300,-970.24,0
300,-300,-956.91,0
300,-300,-949.17,0
300,-300,-946.77,0
300,-300,-952.20,0
300,-300,-965.33,0
300,-300,-987.82,0
300,-300,-1018.81,0
300,-300,-1059.19,0
300,-300,-1106.29,0
300,-300,-1159.64,0
300,-300,-1216.65,0
300,-300,-1275.58,0
300,-300,-1334.38,0
300,-300,-1392.42,0
300,-300,-1448.04,0
300,-300,-1501.73,0
300,-300,-1552.75,0
300,-300,-1603.04,0
300,-300,-1651.19,0
300,-300,-1698.69,0
300,-300,-1744.32,0
300,-300,-1788.57,0
300,-300,-1829.48,0
300,-300,-1866.97,0
300,-300,-1898.68,0
300,-300,-1924.31,0
300,-300,-1942.63,0
300,-300,-1954.18,0
300,-300,-1959.59,0
300,-300,-1960.54,0
300,-300,-1957.70,0
300,-300,-1954.84,0
300,-300,-1952.44,0
300,-300,-1952.98,0
300,-300,-1956.56,0
300,-300,-1964.16,0
300,-300,-1974.03,0
300,-300,-1983.43,0
300,-300,-1991.14,0
300,-300,-1994.11,0
300,-300,-1990.10,0
300,-300,-1977.85,0
300,-300,-1955.72,0
300,-300,-1925.03,0
300,-300,-1885.25,0
300,-300,-1840.05,0
300,-300,-1790.59,0
300,-300,-1741.15,0
300,-300,-1693.43,0
300,-300,-1649.63,0
300,-300,-1611.52,0
300,-300,-1579.55,0
300,-300,-1552.83,0
300,-300,-1530.53,0
300,-300,-1509.74,0
300,-300,-1488.94,0
300,-300,-1465.69,0
300,-300,-1438.66,0
300,-300,-1406.21,0
300,-300,-1369.72,0
300,-300,-1327.85,0
300,-300,-1283.29,0
300,-300,-1236.47,0
300,-300,-1190.57,0
300,-300,-1146.11,0
300,-300,-1104.84,0
300,-300,-1067.25,0
300,-300,-1033.60,0
300,-300,-1002.98,0
300,-300,-977.45,0
300,-300,-953.44,0
300,-300,-932.50,0
300,-300,-913.88,0
300,-300,-898.97,0
300,-300,-887.69,0
300,-300,-882.75,0
300,-300,-884.13,0
300,-300,-894.83,0
300,-300,-914.73,0
300,-300,-945.22,0
300,-300,-985.81,0
300,-300,-1036.07,0
300,-300,-1094.14,0
300,-300,-1158.73,0
300,-300,-1226.72,0
300,-300,-1296.97,0
300,-300,-1365.91,0
300,-300,-1433.79,0
300,-300,-1498.00,0
300,-300,-1559.62,0
300,-300,-1617.49,0
300,-300,-1673.10,0
300,-300,-1726.04,0
300,-300,-1777.21,0
300,-300,-1825.85,0
300,-300,-1872.38,0
300,-300,-1915.04,0
300,-300,-1953.58,0
300,-300,-1985.15,0
300,-300,-2010.25,0
300,-300,-2026.75,0
300,-300,-2035.45,0
300,-300,-2035.78,0
300,-300,-2030.23,0
300,-300,-2019.59,0
300,-300,-2007.77,0
300,-300,-1995.63,0
300,-300,-1986.69,0
300,-300,-1980.99,0
300,-300,-1980.79,0
300,-300,-1985.24,0
300,-300,-1994.02,0
300,-300,-2004.81,0
300,-300,-2016.20,0
300,-300,-2025.48,0
300,-300,-2030.28,0
300,-300,-2028.34,0
300,-300,-2018.72,0
300,-300,-2000.60,0
300,-300,-1974.21,0
300,-300,-1940.12,0
300,-300,-1900.51,0
300,-300,-1856.56,0
300,-300,-1811.00,0
300,-300,-1765.09,0
300,-300,-1720.59,0
300,-300,-1678.98,0
300,-300,-1641.00,0
300,-300,-1608.80,0
300,-300,-1580.56,0
300,-300,-1556.03,0
300,-300,-1534.74,0
300,-300,-1515.09,0
300,-300,-1496.77,0
300,-300,-1477.62,0
300,-300,-1456.49,0
300,-300,-1432.98,0
300,-300,-1406.76,0
300,-300,-1376.48,0
300,-300,-1343.28,0
300,-300,-1306.96,0
300,-300,-1268.61,0
300,-300,-1228.79,0
300,-300,-1189.00,0
300,-300,-1149.12,0
300,-300,-1110.74,0
300,-300,-1073.56,0
300,-300,-1038.34,0
300,-300,-1004.52,0
300,-300,-972.81,0
300,-300,-942.53,0
300,-300,-915.19,0
300,-300,-890.62,0
300,-300,-870.36,0
300,-300,-855.71,0
300,-300,-848.00,0
300,-300,-849.12,0
300,-300,-859.93,0
300,-300,-881.10,0
300,-300,-913.13,0
300,-300,-954.65,0
300,-300,-1005.26,0
300,-300,-1062.82,0
300,-300,-1125.37,0
300,-300,-1191.47,0
300,-300,-1258.39,0
300,-300,-1324.60,0
300,-300,-1389.81,0
300,-300,-1452.15,0
300,-300,-1512.67,0
300,-300,-1570.86,0
300,-300,-1627.32,0
300,-300,-1681.95,0
300,-300,-1734.71,0
300,-300,-1784.60,0
300,-300,-1831.51,0
300,-300,-1873.50,0
300,-300,-1910.64,0
300,-300,-1940.65,0
300,-300,-1963.77,0
300,-300,-1979.52,0
300,-300,-1989.24,0
300,-300,-1993.65,0
300,-300,-1995.21,0
300,-300,-1995.10,0
300,-300,-1996.26,0
300,-300,-1999.61,0
300,-300,-2006.26,0
300,-300,-2016.15,0
300,-300,-2029.13,0
300,-300,-2043.32,0
300,-300,-2057.35,0
300,-300,-2068.76,0
300,-300,-2075.95,0
300,-300,-2077.16,0
300,-300,-2071.59,0
300,-300,-2057.54,0
300,-300,-2036.68,0
300,-300,-2008.65,0
300,-300,-1974.90,0
300,-300,-1936.57,0
300,-300,-1894.47,0
300,-300,-1849.85,0
300,-300,-1803.41,0
300,-300,-1756.02,0
300,-300,-1708.04,0
300,-300,-1660.59,0
300,-300,-1614.10,0
300,-300,-1569.08,0
300,-300,-1526.18,0
300,-300,-1485.68,0
300,-300,-1448.73,0
300,-300,-1415.57,0
300,-300,-1386.12,0
300,-300,-1359.54,0
300,-300,-1335.56,0
300,-300,-1313.38,0
300,-300,-1291.12,0
300,-300,-1267.62,0
300,-300,-1241.86,0
300,-300,-1213.39,0
300,-300,-1182.11,0
300,-300,-1148.00,0
300,-300,-1112.16,0
300,-300,-1075.35,0
300,-300,-1038.31,0
300,-300,-1003.40,0
300,-300,-970.12,0
300,-300,-939.44,0
300,-300,-912.08,0
300,-300,-888.14,0
300,-300,-867.66,0
300,-300,-850.65,0
300,-300,-837.17,0
300,-300,-828.53,0
300,-300,-825.62,0
300,-300,-829.23,0
300,-300,-841.07,0
300,-300,-862.46,0
300,-300,-894.27,0
300,-300,-936.73,0
300,-300,-989.89,0
300,-300,-1052.33,0
300,-300,-1122.78,0
300,-300,-1199.13,0
300,-300,-1278.29,0
300,-300,-1358.49,0
300,-300,-1437.65,0
300,-300,-1513.63,0
300,-300,-1585.95,0
300,-300,-1653.83,0
300,-300,-1717.27,0
300,-300,-1777.00,0
300,-300,-1832.77,0
300,-300,-1885.49,0
300,-300,-1934.20,0
300,-300,-1979.32,0
300,-300,-2020.00,0
300,-300,-2054.79,0
300,-300,-2083.17,0
300,-300,-2104.16,0
300,-300,-2117.66,0
300,-300,-2124.83,0
300,-300,-2125.78,0
300,-300,-2122.42,0
300,-300,-2116.71,0
300,-300,-2109.93,0
300,-300,-2104.47,0
300,-300,-2101.25,0
300,-300,-2100.92,0
300,-300,-2103.50,0
300,-300,-2108.01,0
300,-300,-2112.71,0
300,-300,-2116.48,0
300,-300,-2117.21,0
300,-300,-2114.09,0
300,-300,-2105.36,0
300,-300,-2090.53,0
300,-300,-2069.64,0
300,-300,-2042.83,0
300,-300,-2010.45,0
300,-300,-1973.78,0
300,-300,-1931.16,0
300,-300,-1885.76,0
300,-300,-1837.02,0
300,-300,-1785.71,0
300,-300,-1732.32,0
300,-300,-1678.38,0
300,-300,-1624.45,0
300,-300,-1572.14,0
300,-300,-1522.76,0
300,-300,-1476.71,0
300,-300,-1436.58,0
300,-300,-1402.67,0
300,-300,-1375.21,0
300,-300,-1354.01,0
300,-300,-1337.91,0
300,-300,-1325.18,0
300,-300,-1313.94,0
300,-300,-1302.05,0
300,-300,-1287.42,0
300,-300,-1269.42,0
300,-300,-1246.57,0
300,-300,-1219.12,0
300,-300,-1187.61,0
300,-300,-1153.64,0
300,-300,-1118.31,0
300,-300,-1083.57,0
300,-300,-1050.78,0
300,-300,-1021.05,0
300,-300,-994.81,0
300,-300,-972.86,0
300,-300,-954.06,0
300,-300,-939.06,0
300,-300,-927.09,0
300,-300,-918.09,0
300,-300,-912.71,0
300,-300,-912.00,0
300,-300,-916.52,0
300,-300,-927.88,0
300,-300,-947.02,0
300,-300,-975.04,0
300,-300,-1012.00,0
300,-300,-1057.18,0
300,-300,-1110.35,0
300,-300,-1168.56,0
300,-300,-1230.34,0
300,-300,-1293.52,0
300,-300,-1356.09,0
300,-300,-1416.52,0
300,-300,-1473.71,0
300,-300,-1527.33,0
300,-300,-1577.75,0
300,-300,-1625.28,0
300,-300,-1670.37,0
300,-300,-1713.71,0
300,-300,-1755.53,0
300,-300,-1795.20,0
300,-300,-1831.41,0
300,-300,-1863.53,0
300,-300,-1889.57,0
300,-300,-1908.89,0
300,-300,-1920.90,0
300,-300,-1924.61,0
300,-300,-1921.55,0
300,-300,-1912.86,0
300,-300,-1900.67,0
300,-300,-1887.55,0
300,-300,-1875.65,0
300,-300,-1867.12,0
300,-300,-1862.99,0
300,-300,-1863.18,0
300,-300,-1867.33,0
300,-300,-1872.72,0
300,-300,-1878.01,0
300,-300,-1880.53,0
300,-300,-1877.06,0
300,-300,-1866.26,0
300,-300,-1846.30,0
300,-300,-1817.59,0
300,-300,-1780.89,0
300,-300,-1738.42,0
300,-300,-1692.92,0
300,-300,-1647.33,0
300,-300,-1603.82,0
300,-300,-1565.12,0
300,-300,-1532.21,0
300,-300,-1505.35,0
300,-300,-1484.37,0
300,-300,-1467.50,0
300,-300,-1452.60,0
300,-300,-1437.93,0
300,-300,-1420.68,0
300,-300,-1401.29,0
300,-300,-1376.62,0
300,-300,-1347.12,0
300,-300,-1313.53,0
300,-300,-1277.05,0
300,-300,-1238.88,0
300,-300,-1200.28,0
300,-300,-1163.05,0
300,-300,-1127.78,0
300,-300,-1095.73,0
300,-300,-1066.41,0
300,-300,-1039.93,0
300,-300,-1016.61,0
300,-300,-996.24,0
300,-300,-979.36,0
300,-300,-966.51,0
300,-300,-957.86,0
300,-300,-955.53,0
300,-300,-960.29,0
300,-300,-972.72,0
300,-300,-994.49,0
300,-300,-1025.58,0
300,-300,-1066.26,0
300,-300,-1115.41,0
300,-300,-1172.03,0
300,-300,-1234.57,0
300,-300,-1301.00,0
300,-300,-1369.06,0
300,-300,-1437.32,0
300,-300,-1503.35,0
300,-300,-1567.03,0
300,-300,-1626.80,0
300,-300,-1682.96,0
300,-300,-1735.01,0
300,-300,-1783.37,0
300,-300,-1828.39,0
300,-300,-1869.85,0
300,-300,-1907.49,0
300,-300,-1941.36,0
300,-300,-1970.63,0
300,-300,-1994.69,0
300,-300,-2013.27,0
300,-300,-2026.24,0
300,-300,-2033.29,0
300,-300,-2035.39,0
300,-300,-2034.25,0
300,-300,-2030.71,0
300,-300,-2026.31,0
300,-300,-2023.10,0
300,-300,-2022.71,0
300,-300,-2025.85,0
300,-300,-2033.41,0
300,-300,-2044.96,0
300,-300,-2059.53,0
300,-300,-2075.71,0
300,-300,-2089.21,0
300,-300,-2099.55,0
300,-300,-2103.29,0
300,-300,-2099.11,0
300,-300,-2084.95,0
300,-300,-2060.84,0
300,-300,-2027.15,0
300,-300,-1985.83,0
300,-300,-1938.61,0
300,-300,-1888.52,0
300,-300,-1836.78,0
300,-300,-1787.68,0
300,-300,-1741.89,0
300,-300,-1701.52,0
300,-300,-1666.23,0
300,-300,-1636.07,0
300,-300,-1609.56,0
300,-300,-1585.03,0
300,-300,-1560.24,0
300,-300,-1533.74,0
300,-300,-1504.28,0
300,-300,-1471.17,0
300,-300,-1433.76,0
300,-300,-1392.99,0
300,-300,-1349.36,0
300,-300,-1304.32,0
300,-300,-1259.41,0
300,-300,-1215.69,0
300,-300,-1173.65,0
300,-300,-1133.90,0
300,-300,-1096.35,0
300,-300,-1060.53,0
300,-300,-1026.22,0
300,-300,-993.14,0
300,-300,-960.49,0
300,-300,-929.10,0
300,-300,-899.52,0
300,-300,-873.07,0
300,-300,-851.83,0
300,-300,-838.38,0
300,-300,-833.03,0
300,-300,-838.25,0
300,-300,-854.81,0
300,-300,-882.68,0
300,-300,-920.72,0
300,-300,-968.61,0
300,-300,-1023.79,0
300,-300,-1083.95,0
300,-300,-1147.29,0
300,-300,-1211.80,0
300,-300,-1275.99,0
300,-300,-1338.76,0
300,-300,-1400.75,0
300,-300,-1460.88,0
300,-300,-1519.78,0
300,-300,-1578.06,0
300,-300,-1635.00,0
300,-300,-1690.80,0
300,-300,-1743.82,0
300,-300,-1793.12,0
300,-300,-1838.06,0
300,-300,-1876.13,0
300,-300,-1906.69,0
300,-300,-1929.71,0
300,-300,-1945.06,0
300,-300,-1954.11,0
300,-300,-1958.08,0
300,-300,-1959.62,0
300,-300,-1960.04,0
300,-300,-1962.20,0
300,-300,-1967.42,0
300,-300,-1976.12,0
300,-300,-1988.65,0
300,-300,-2004.28,0
300,-300,-2021.13,0
300,-300,-2037.28,0
300,-300,-2050.56,0
300,-300,-2059.71,0
300,-300,-2062.54,0
300,-300,-2058.05,0
300,-300,-2045.99,0
300,-300,-2025.81,0
300,-300,-1998.80,0
300,-300,-1966.14,0
300,-300,-1928.66,0
300,-300,-1887.26,0
300,-300,-1843.62,0
300,-300,-1798.11,0
300,-300,-1752.55,0
