Tran,San,Gia_tri_PPG,Truc_0
300,-300,-2950.99,0
300,-300,-2616.63,0
300,-300,-2288.82,0
300,-300,-1994.23,0
300,-300,-1758.97,0
300,-300,-1603.95,0
300,-300,-1542.67,0
300,-300,-1575.62,0
300,-300,-1696.69,0
300,-300,-1885.46,0
300,-300,-2112.95,0
300,-300,-2346.07,0
300,-300,-2549.26,0
300,-300,-2689.35,0
300,-300,-2740.67,0
300,-300,-2687.31,0
300,-300,-2525.56,0
300,-300,-2262.45,0
300,-300,-1915.37,0
300,-300,-1511.96,0
300,-300,-1081.49,0
300,-300,-656.79,0
300,-300,-265.38,0
300,-300,68.77,0
300,-300,329.94,0
300,-300,508.97,0
300,-300,604.03,0
300,-300,621.34,0
300,-300,568.06,0
300,-300,456.06,0
300,-300,291.54,0
300,-300,91.35,0
300,-300,-138.2,0
300,-300,-391.34,0
300,-300,-664.79,0
300,-300,-953.56,0
300,-300,-1254.21,0
300,-300,-1563.57,0
300,-300,-1874.22,0
300,-300,-2180.38,0
300,-300,-2476.64,0
300,-300,-2755.99,0
300,-300,-3016.03,0
300,-300,-3252.53,0
300,-300,-3465.57,0
300,-300,-3654.6,0
300,-300,-3821.89,0
300,-300,-3970.78,0
300,-300,-4102.53,0
300,-300,-4216.44,0
300,-300,-4314.36,0
300,-300,-4387.64,0
300,-300,-4430.54,0
300,-300,-4433.78,0
300,-300,-4389.4,0
300,-300,-4290.71,0
300,-300,-4132.48,0
300,-300,-3901.94,0
300,-300,-3622.27,0
300,-300,-3302.06,0
300,-300,-2962.68,0
300,-300,-2625.3,0
300,-300,-2315.8,0
300,-300,-2057.75,0
300,-300,-1874.58,0
300,-300,-1778.55,0
300,-300,-1773.17,0
300,-300,-1852.61,0
300,-300,-1998.7,0
300,-300,-2187.91,0
300,-300,-2389.77,0
300,-300,-2571.09,0
300,-300,-2700.01,0
300,-300,-2748.72,0
300,-300,-2699.38,0
300,-300,-2544.21,0
300,-300,-2286.61,0
300,-300,-1939.42,0
300,-300,-1525.27,0
300,-300,-1068.8,0
300,-300,-603.63,0
300,-300,-156.99,0
300,-300,245.84,0
300,-300,586.01,0
300,-300,850.44,0
300,-300,1034.66,0
300,-300,1141.4,0
300,-300,1176.58,0
300,-300,1150.91,0
300,-300,1073.45,0
300,-300,956.35,0
300,-300,806.93,0
300,-300,630.87,0
300,-300,431.31,0
300,-300,211.62,0
300,-300,-25.81,0
300,-300,-279.17,0
300,-300,-545.25,0
300,-300,-820.27,0
300,-300,-1096.87,0
300,-300,-1369.61,0
300,-300,-1632.48,0
300,-300,-1879.8,0
300,-300,-2106.95,0
300,-300,-2310.69,0
300,-300,-2489.68,0
300,-300,-2645.19,0
300,-300,-2778.63,0
300,-300,-2892.27,0
300,-300,-2989.1,0
300,-300,-3067.14,0
300,-300,-3126.83,0
300,-300,-3164.99,0
300,-300,-3179.19,0
300,-300,-3165.89,0
300,-300,-3121.93,0
300,-300,-3033.59,0
300,-300,-2905.8,0
300,-300,-2738.58,0
300,-300,-2537.09,0
300,-300,-2310.72,0
300,-300,-2074.26,0
300,-300,-1842.97,0
300,-300,-1634.32,0
300,-300,-1464.3,0
300,-300,-1346.01,0
300,-300,-1292.43,0
300,-300,-1303.14,0
300,-300,-1374.75,0
300,-300,-1498.68,0
300,-300,-1659.26,0
300,-300,-1834.49,0
300,-300,-2001.09,0
300,-300,-2135.78,0
300,-300,-2217.99,0
300,-300,-2231.24,0
300,-300,-2167.58,0
300,-300,-2024.35,0
300,-300,-1805.71,0
300,-300,-1526.61,0
300,-300,-1205.12,0
300,-300,-862.88,0
300,-300,-522.76,0
300,-300,-205.69,0
300,-300,69.98,0
300,-300,292.33,0
300,-300,454.96,0
300,-300,560.41,0
300,-300,599.27,0
300,-300,593.96,0
300,-300,552.96,0
300,-300,483.09,0
300,-300,388.87,0
300,-300,275.14,0
300,-300,143.07,0
300,-300,-4.01,0
300,-300,-169.3,0
300,-300,-358.23,0
300,-300,-572.44,0
300,-300,-815.39,0
300,-300,-1083.61,0
300,-300,-1372.34,0
300,-300,-1673.52,0
300,-300,-1977.69,0
300,-300,-2274.59,0
300,-300,-2555.08,0
300,-300,-2808.91,0
300,-300,-3030.05,0
300,-300,-3215.93,0
300,-300,-3367.12,0
300,-300,-3486.46,0
300,-300,-3576.26,0
300,-300,-3640.48,0
300,-300,-3680.76,0
300,-300,-3698.1,0
300,-300,-3691.9,0
300,-300,-3658.74,0
300,-300,-3597.42,0
300,-300,-3505.46,0
300,-300,-3383.75,0
300,-300,-3235.86,0
300,-300,-3066.06,0
300,-300,-2880.93,0
300,-300,-2690.22,0
300,-300,-2502.55,0
300,-300,-2317.7,0
300,-300,-2154.41,0
300,-300,-2014.78,0
300,-300,-1902.16,0
300,-300,-1817.61,0
300,-300,-1760.46,0
300,-300,-1727.96,0
300,-300,-1715.9,0
300,-300,-1719.78,0
300,-300,-1734.23,0
300,-300,-1755.17,0
300,-300,-1775.57,0
300,-300,-1789.71,0
300,-300,-1791.35,0
300,-300,-1774.13,0
300,-300,-1731.37,0
300,-300,-1658.45,0
300,-300,-1550.81,0
300,-300,-1407.08,0
300,-300,-1228.54,0
300,-300,-1019.54,0
300,-300,-785.2,0
300,-300,-546.71,0
300,-300,-309.29,0
300,-300,-85.74,0
300,-300,113.04,0
300,-300,277.34,0
300,-300,401.74,0
300,-300,482.99,0
300,-300,523.4,0
300,-300,525.23,0
300,-300,495,0
300,-300,440.93,0
300,-300,364.41,0
300,-300,268.47,0
300,-300,153.57,0
300,-300,17.61,0
300,-300,-143.14,0
300,-300,-332.71,0
300,-300,-553.13,0
300,-300,-804.96,0
300,-300,-1084.67,0
300,-300,-1384.12,0
300,-300,-1693.95,0
300,-300,-2002.43,0
300,-300,-2295.98,0
300,-300,-2562.94,0
300,-300,-2794.32,0
300,-300,-2985.65,0
300,-300,-3136.43,0
300,-300,-3249.16,0
300,-300,-3330.03,0
300,-300,-3384.68,0
300,-300,-3419.4,0
300,-300,-3439.32,0
300,-300,-3445.49,0
300,-300,-3437.46,0
300,-300,-3411.48,0
300,-300,-3363.92,0
300,-300,-3286.65,0
300,-300,-3174.1,0
300,-300,-3023.97,0
300,-300,-2837.79,0
300,-300,-2620.13,0
300,-300,-2381.91,0
300,-300,-2136.15,0
300,-300,-1899.56,0
300,-300,-1688.66,0
300,-300,-1519.59,0
300,-300,-1408.01,0
300,-300,-1358.42,0
300,-300,-1372.5,0
300,-300,-1446.38,0
300,-300,-1568.33,0
300,-300,-1722.18,0
300,-300,-1886.65,0
300,-300,-2039.91,0
300,-300,-2159.91,0
300,-300,-2228.51,0
300,-300,-2233.16,0
300,-300,-2164.77,0
300,-300,-2021.74,0
300,-300,-1811.67,0
300,-300,-1545.64,0
300,-300,-1241.68,0
300,-300,-918.56,0
300,-300,-597.76,0
300,-300,-298.21,0
300,-300,-37.18,0
300,-300,173.68,0
300,-300,329.98,0
300,-300,421.53,0
300,-300,461.76,0
300,-300,455.4,0
300,-300,409.12,0
300,-300,330.62,0
300,-300,226.59,0
300,-300,103.17,0
300,-300,-36.91,0
300,-300,-191.97,0
300,-300,-364.12,0
300,-300,-552.75,0
300,-300,-762.52,0
300,-300,-992.01,0
300,-300,-1240.42,0
300,-300,-1502.28,0
300,-300,-1771.3,0
300,-300,-2038.3,0
300,-300,-2294.53,0
300,-300,-2530,0
300,-300,-2738.18,0
300,-300,-2913.38,0
300,-300,-3054.45,0
300,-300,-3162.05,0
300,-300,-3240.3,0
300,-300,-3294.12,0
300,-300,-3328.61,0
300,-300,-3347.6,0
300,-300,-3353.35,0
300,-300,-3347.36,0
300,-300,-3326.95,0
300,-300,-3287.58,0
300,-300,-3225.64,0
300,-300,-3135.94,0
300,-300,-3014.78,0
300,-300,-2861.23,0
300,-300,-2677.96,0
300,-300,-2471.17,0
300,-300,-2250.99,0
300,-300,-2029.62,0
300,-300,-1823.4,0
300,-300,-1645.24,0
300,-300,-1508.12,0
300,-300,-1421.23,0
300,-300,-1390,0
300,-300,-1412.09,0
300,-300,-1482.42,0
300,-300,-1588.83,0
300,-300,-1715.95,0
300,-300,-1846.15,0
300,-300,-1958.65,0
300,-300,-2036.16,0
300,-300,-2063.78,0
300,-300,-2030.16,0
300,-300,-1931.1,0
300,-300,-1766.62,0
300,-300,-1544.38,0
300,-300,-1276.34,0
300,-300,-978.88,0
300,-300,-669.4,0
300,-300,-368.56,0
300,-300,-93.42,0
300,-300,142.61,0
300,-300,330.59,0
300,-300,466.04,0
300,-300,549.26,0
300,-300,583.63,0
300,-300,575.67,0
300,-300,532.11,0
300,-300,458.24,0
300,-300,363.43,0
300,-300,247.36,0
300,-300,110.9,0
300,-300,-46.01,0
300,-300,-225.92,0
300,-300,-430.58,0
300,-300,-661.4,0
300,-300,-917.77,0
300,-300,-1196.27,0
300,-300,-1491.38,0
300,-300,-1793.4,0
300,-300,-2093.67,0
300,-300,-2382.11,0
300,-300,-2648.76,0
300,-300,-2886.33,0
300,-300,-3089.91,0
300,-300,-3258.45,0
300,-300,-3392.4,0
300,-300,-3496.41,0
300,-300,-3573.93,0
300,-300,-3628.47,0
300,-300,-3661.43,0
300,-300,-3674.54,0
300,-300,-3666.04,0
300,-300,-3633.59,0
300,-300,-3573.66,0
300,-300,-3483.51,0
300,-300,-3360.37,0
300,-300,-3189.76,0
300,-300,-2985.62,0
300,-300,-2750.44,0
300,-300,-2493.44,0
300,-300,-2229.17,0
300,-300,-1972.49,0
300,-300,-1740.93,0
300,-300,-1549.45,0
300,-300,-1411.58,0
300,-300,-1335.92,0
300,-300,-1328.92,0
300,-300,-1383.15,0
300,-300,-1491.58,0
300,-300,-1637.26,0
300,-300,-1801.06,0
300,-300,-1960.18,0
300,-300,-2091.85,0
300,-300,-2175.11,0
300,-300,-2193.18,0
300,-300,-2136.21,0
300,-300,-2001.66,0
300,-300,-1793.08,0
300,-300,-1521.25,0
300,-300,-1204.4,0
300,-300,-863.39,0
300,-300,-521.14,0
300,-300,-198.97,0
300,-300,84.25,0
300,-300,315.39,0
300,-300,487.4,0
300,-300,597.21,0
300,-300,649.3,0
300,-300,648.84,0
300,-300,606.84,0
300,-300,530.73,0
300,-300,428.43,0
300,-300,304.28,0
300,-300,162.23,0
300,-300,-0.05,0
300,-300,-182.97,0
300,-300,-391.34,0
300,-300,-626.72,0
300,-300,-888.86,0
300,-300,-1175.94,0
300,-300,-1482.23,0
300,-300,-1798.06,0
300,-300,-2113.01,0
300,-300,-2414.77,0
300,-300,-2692.89,0
300,-300,-2938.23,0
300,-300,-3144.73,0
300,-300,-3311.59,0
300,-300,-3439.61,0
300,-300,-3533.23,0
300,-300,-3597.88,0
300,-300,-3639.24,0
300,-300,-3660.83,0
300,-300,-3664.41,0
300,-300,-3648.86,0
300,-300,-3613.75,0
300,-300,-3553.75,0
300,-300,-3465.71,0
300,-300,-3345.27,0
300,-300,-3191.39,0
300,-300,-3005.96,0
300,-300,-2794.22,0
300,-300,-2565.35,0
300,-300,-2331.07,0
300,-300,-2104.65,0
300,-300,-1900.24,0
300,-300,-1731.59,0
300,-300,-1608.39,0
300,-300,-1536.72,0
300,-300,-1517.62,0
300,-300,-1548.5,0
300,-300,-1620.55,0
300,-300,-1721.6,0
300,-300,-1837.3,0
300,-300,-1951.19,0
300,-300,-2047.9,0
300,-300,-2111.6,0
300,-300,-2130.12,0
300,-300,-2095.72,0
300,-300,-2004.6,0
300,-300,-1858,0
300,-300,-1660.9,0
300,-300,-1422.96,0
300,-300,-1156.3,0
300,-300,-876.03,0
300,-300,-598.01,0
300,-300,-331.84,0
300,-300,-104.75,0
300,-300,86.99,0
300,-300,236.82,0
300,-300,342.22,0
300,-300,403.78,0
300,-300,424.83,0
300,-300,409.97,0
300,-300,365.38,0
300,-300,294.25,0
300,-300,200.12,0
300,-300,87.66,0
300,-300,-47.56,0
300,-300,-206.65,0
300,-300,-391.91,0
300,-300,-604.76,0
300,-300,-845.31,0
300,-300,-1110.91,0
300,-300,-1396.56,0
300,-300,-1694.93,0
300,-300,-1995.99,0
300,-300,-2287.88,0
300,-300,-2561.54,0
300,-300,-2807.94,0
300,-300,-3020.82,0
300,-300,-3197.6,0
300,-300,-3338.11,0
300,-300,-3445.38,0
300,-300,-3523.65,0
300,-300,-3578.29,0
300,-300,-3613.1,0
300,-300,-3628.78,0
300,-300,-3626.65,0
300,-300,-3604.41,0
300,-300,-3558.68,0
300,-300,-3483.79,0
300,-300,-3375.05,0
300,-300,-3228.77,0
300,-300,-3031.72,0
300,-300,-2801.07,0
300,-300,-2541.17,0
300,-300,-2264.43,0
300,-300,-1987.85,0
300,-300,-1730.26,0
300,-300,-1510.59,0
300,-300,-1345.12,0
300,-300,-1246.28,0
300,-300,-1220.4,0
300,-300,-1268.38,0
300,-300,-1378.96,0
300,-300,-1537.42,0
300,-300,-1722.7,0
300,-300,-1909.11,0
300,-300,-2071.05,0
300,-300,-2184.39,0
300,-300,-2229.87,0
300,-300,-2194.26,0
300,-300,-2073.45,0
300,-300,-1870.71,0
300,-300,-1598.87,0
300,-300,-1274.06,0
300,-300,-921.36,0
300,-300,-564.05,0
300,-300,-226.69,0
300,-300,70.66,0
300,-300,312.7,0
300,-300,491.82,0
300,-300,605.65,0
300,-300,656.43,0
300,-300,652.63,0
300,-300,602.45,0
300,-300,516.52,0
300,-300,402.58,0
300,-300,266.46,0
300,-300,111.7,0
300,-300,-61.19,0
300,-300,-253.28,0
300,-300,-466.11,0
300,-300,-701.16,0
300,-300,-958.28,0
300,-300,-1233.28,0
300,-300,-1521.96,0
300,-300,-1815.76,0
300,-300,-2104.95,0
300,-300,-2379.09,0
300,-300,-2628.75,0
300,-300,-2847.2,0
300,-300,-3030.09,0
300,-300,-3177,0
300,-300,-3290.91,0
300,-300,-3375.15,0
300,-300,-3436.16,0
300,-300,-3478.21,0
300,-300,-3505.04,0
300,-300,-3517.2,0
300,-300,-3512.99,0
300,-300,-3488.77,0
300,-300,-3435.81,0
300,-300,-3347.65,0
300,-300,-3218.78,0
300,-300,-3044.84,0
300,-300,-2828.73,0
300,-300,-2577.79,0
300,-300,-2304.33,0
300,-300,-2024.98,0
300,-300,-1759.6,0
300,-300,-1528.28,0
300,-300,-1353.27,0
300,-300,-1244.84,0
300,-300,-1212.21,0
300,-300,-1254.25,0
300,-300,-1362.77,0
300,-300,-1521.31,0
300,-300,-1707.85,0
300,-300,-1895.05,0
300,-300,-2056.2,0
300,-300,-2166.1,0
300,-300,-2206.62,0
300,-300,-2163.01,0
300,-300,-2032.31,0
300,-300,-1818.78,0
300,-300,-1535.45,0
300,-300,-1202.59,0
300,-300,-843.5,0
300,-300,-483.02,0
300,-300,-144.82,0
300,-300,151.43,0
300,-300,388.33,0
300,-300,564.24,0
300,-300,663.02,0
300,-300,704.11,0
300,-300,692.87,0
300,-300,639.1,0
300,-300,551.5,0
300,-300,439.09,0
300,-300,307.56,0
300,-300,161.16,0
300,-300,-0.9,0
300,-300,-179.99,0
300,-300,-377.25,0
300,-300,-597.96,0
300,-300,-842.91,0
300,-300,-1110.43,0
300,-300,-1396.11,0
300,-300,-1692.62,0
300,-300,-1990.83,0
300,-300,-2279.65,0
300,-300,-2550.62,0
300,-300,-2793.81,0
300,-300,-3003.68,0
300,-300,-3177.51,0
300,-300,-3316.04,0
300,-300,-3420.89,0
300,-300,-3497.79,0
300,-300,-3550.25,0
300,-300,-3582.77,0
300,-300,-3596.91,0
300,-300,-3593.02,0
300,-300,-3569.79,0
300,-300,-3523.08,0
300,-300,-3451.97,0
300,-300,-3354.74,0
300,-300,-3231.36,0
300,-300,-3084.03,0
300,-300,-2917.03,0
300,-300,-2737.66,0
300,-300,-2541.01,0
300,-300,-2350.22,0
300,-300,-2170.59,0
300,-300,-2010.61,0
300,-300,-1877.3,0
300,-300,-1776.34,0
300,-300,-1710.08,0
300,-300,-1679.05,0
300,-300,-1679.82,0
300,-300,-1708.41,0
300,-300,-1758.53,0
300,-300,-1819.51,0
300,-300,-1881.77,0
300,-300,-1934.86,0
300,-300,-1966.84,0
300,-300,-1967.73,0
300,-300,-1928.87,0
300,-300,-1844.34,0
300,-300,-1711.25,0
300,-300,-1531.15,0
300,-300,-1310.52,0
300,-300,-1056.79,0
300,-300,-785.72,0
300,-300,-511.61,0
300,-300,-249.72,0
300,-300,-14.25,0
300,-300,184.54,0
300,-300,338.98,0
300,-300,446.34,0
300,-300,506.77,0
300,-300,523.99,0
300,-300,504.09,0
300,-300,457.64,0
300,-300,386.91,0
300,-300,297.54,0
300,-300,190.5,0
300,-300,65.47,0
300,-300,-81.42,0
300,-300,-253.96,0
300,-300,-456.95,0
300,-300,-692.61,0
300,-300,-960.62,0
300,-300,-1254.23,0
300,-300,-1566.98,0
300,-300,-1886.85,0
300,-300,-2200.8,0
300,-300,-2496.32,0
300,-300,-2762.17,0
300,-300,-2991.07,0
300,-300,-3179.67,0
300,-300,-3327.79,0
300,-300,-3441.48,0
300,-300,-3523.57,0
300,-300,-3582.67,0
300,-300,-3623.22,0
300,-300,-3648.24,0
300,-300,-3657.39,0
300,-300,-3648.2,0
300,-300,-3616.22,0
300,-300,-3559.08,0
300,-300,-3470.73,0
300,-300,-3350.59,0
300,-300,-3197.57,0
300,-300,-3016.68,0
300,-300,-2814.74,0
300,-300,-2602.06,0
300,-300,-2389.8,0
300,-300,-2190.31,0
300,-300,-2014.04,0
300,-300,-1872.56,0
300,-300,-1769.98,0
300,-300,-1710.05,0
300,-300,-1689.22,0
300,-300,-1703.85,0
300,-300,-1745.66,0
300,-300,-1804.63,0
300,-300,-1869.09,0
300,-300,-1927.89,0
300,-300,-1968.8,0
300,-300,-1984.46,0
300,-300,-1965.33,0
300,-300,-1906.9,0
300,-300,-1806.19,0
300,-300,-1664.18,0
300,-300,-1483.8,0
300,-300,-1271.67,0
300,-300,-1036.29,0
300,-300,-788.56,0
300,-300,-540.53,0
300,-300,-305.92,0
300,-300,-89.24,0
300,-300,86.95,0
300,-300,230.79,0
300,-300,336.99,0
300,-300,404.05,0
300,-300,433.11,0
300,-300,427.37,0
300,-300,391.16,0
300,-300,329.73,0
300,-300,244.8,0
300,-300,138.4,0
300,-300,11.22,0
300,-300,-140.36,0
300,-300,-318.48,0
300,-300,-525.06,0
300,-300,-760.27,0
300,-300,-1021.78,0
300,-300,-1304.58,0
300,-300,-1599.97,0
300,-300,-1898.47,0
300,-300,-2188.79,0
300,-300,-2458.85,0
300,-300,-2700.78,0
300,-300,-2908.18,0
300,-300,-3078.52,0
300,-300,-3212.81,0
300,-300,-3314.75,0
300,-300,-3390.06,0
300,-300,-3444.92,0
300,-300,-3484.46,0
300,-300,-3510.97,0
300,-300,-3524.3,0
300,-300,-3523.46,0
300,-300,-3504.53,0
300,-300,-3462.89,0
300,-300,-3395.49,0
300,-300,-3299.61,0
300,-300,-3175.34,0
300,-300,-3010.48,0
300,-300,-2822.81,0
300,-300,-2616.59,0
300,-300,-2402.33,0
300,-300,-2192.54,0
300,-300,-2000.52,0
300,-300,-1838.05,0
300,-300,-1715.2,0
300,-300,-1638.21,0
300,-300,-1609.94,0
300,-300,-1631.83,0
300,-300,-1694.28,0
300,-300,-1788.04,0
300,-300,-1900.25,0
300,-300,-2013,0
300,-300,-2110.49,0
300,-300,-2175.88,0
300,-300,-2194.88,0
300,-300,-2156.73,0
300,-300,-2055.93,0
300,-300,-1891.34,0
300,-300,-1668.92,0
300,-300,-1397.57,0
300,-300,-1094.16,0
300,-300,-776.31,0
300,-300,-463.77,0
300,-300,-173.82,0
300,-300,77.66,0
300,-300,280.77,0
300,-300,428.64,0
300,-300,519.42,0
300,-300,555.9,0
300,-300,546.37,0
300,-300,496.94,0
300,-300,416.64,0
300,-300,312.09,0
300,-300,189.34,0
300,-300,50.35,0
300,-300,-104.12,0
300,-300,-275.64,0
300,-300,-466.86,0
300,-300,-680.98,0
300,-300,-916.02,0
300,-300,-1171.03,0
300,-300,-1440.46,0
300,-300,-1716.33,0
300,-300,-1988.5,0
300,-300,-2246.73,0
300,-300,-2481.64,0
300,-300,-2686.51,0
300,-300,-2857.58,0
300,-300,-2994.83,0
300,-300,-3099.25,0
300,-300,-3177.95,0
300,-300,-3235.56,0
300,-300,-3277.18,0
300,-300,-3305.52,0
300,-300,-3321.03,0
300,-300,-3322.19,0
300,-300,-3302.36,0
300,-300,-3253.97,0
300,-300,-3169.01,0
300,-300,-3040.47,0
300,-300,-2866.09,0
300,-300,-2648.54,0
300,-300,-2396.42,0
300,-300,-2123.59,0
300,-300,-1848.36,0
300,-300,-1591.17,0
300,-300,-1378.14,0
300,-300,-1223.77,0
300,-300,-1143.58,0
300,-300,-1143.09,0
300,-300,-1220.13,0
300,-300,-1363.67,0
300,-300,-1555.25,0
300,-300,-1769.11,0
300,-300,-1977.25,0
300,-300,-2151.41,0
300,-300,-2269.12,0
300,-300,-2309.6,0
300,-300,-2262.78,0
300,-300,-2126.97,0
300,-300,-1909.73,0
300,-300,-1626.58,0
300,-300,-1298.32,0
300,-300,-949.04,0
300,-300,-603.17,0
300,-300,-283.19,0
300,-300,-7.73,0
300,-300,215.57,0
300,-300,366.91,0
300,-300,459.03,0
300,-300,496.21,0
300,-300,486.17,0
300,-300,437.15,0
300,-300,357.97,0
300,-300,255.26,0
300,-300,133.53,0
300,-300,-6.86,0
300,-300,-166.23,0
300,-300,-343.51,0
300,-300,-544.79,0
300,-300,-770.29,0
300,-300,-1019.28,0
300,-300,-1288.72,0
300,-300,-1571.93,0
300,-300,-1860.9,0
300,-300,-2146.16,0
300,-300,-2418.23,0
300,-300,-2668.12,0
300,-300,-2888.71,0
300,-300,-3076.52,0
300,-300,-3229.55,0
300,-300,-3349.47,0
300,-300,-3439.58,0
300,-300,-3503.55,0
300,-300,-3545.73,0
300,-300,-3569.76,0
300,-300,-3575.9,0
300,-300,-3563.92,0
300,-300,-3531.03,0
300,-300,-3475.27,0
300,-300,-3393.75,0
300,-300,-3283.27,0
300,-300,-3142.9,0
300,-300,-2974.1,0
300,-300,-2781.82,0
300,-300,-2563.79,0
300,-300,-2341.04,0
300,-300,-2122.38,0
300,-300,-1920.61,0
300,-300,-1747.96,0
300,-300,-1614.98,0
300,-300,-1530.02,0
300,-300,-1495.68,0
300,-300,-1511.4,0
300,-300,-1571.1,0
300,-300,-1664.67,0
300,-300,-1777.02,0
300,-300,-1891.83,0
300,-300,-1990.93,0
300,-300,-2056.97,0
300,-300,-2074.97,0
300,-300,-2034.61,0
300,-300,-1929.24,0
300,-300,-1759.01,0
300,-300,-1529.62,0
300,-300,-1253.34,0
300,-300,-944.38,0
300,-300,-622.16,0
300,-300,-306.29,0
300,-300,-14.78,0
300,-300,237.85,0
300,-300,441.72,0
300,-300,591.86,0
300,-300,687.98,0
300,-300,733.99,0
300,-300,735.57,0
300,-300,699.11,0
300,-300,636.83,0
300,-300,550.02,0
300,-300,442.72,0
300,-300,316.02,0
300,-300,168.33,0
300,-300,-3.48,0
300,-300,-202.46,0
300,-300,-431.24,0
300,-300,-690.5,0
300,-300,-977.67,0
300,-300,-1283.38,0
300,-300,-1600.74,0
300,-300,-1918.01,0
300,-300,-2223.27,0
300,-300,-2505.92,0
300,-300,-2757.29,0
300,-300,-2972.44,0
300,-300,-3150.36,0
300,-300,-3292.1,0
300,-300,-3403.47,0
300,-300,-3488.15,0
300,-300,-3552.17,0
300,-300,-3598.16,0
300,-300,-3626.95,0
300,-300,-3636.63,0
300,-300,-3624.22,0
300,-300,-3585.7,0
300,-300,-3517.72,0
300,-300,-3415.13,0
300,-300,-3277.48,0
300,-300,-3105.94,0
300,-300,-2907.01,0
300,-300,-2690.87,0
300,-300,-2468.46,0
300,-300,-2254.55,0
300,-300,-2061.67,0
300,-300,-1902.41,0
300,-300,-1785.53,0
300,-300,-1721.06,0
300,-300,-1705,0
300,-300,-1735.82,0
300,-300,-1804.29,0
300,-300,-1899.57,0
300,-300,-2005.69,0
300,-300,-2107.13,0
300,-300,-2187.24,0
300,-300,-2231.9,0
300,-300,-2229.79,0
300,-300,-2175.7,0
300,-300,-2063.29,0
300,-300,-1897.3,0
300,-300,-1684.21,0
300,-300,-1434.6,0
300,-300,-1162.08,0
300,-300,-882.39,0
300,-300,-610.64,0
300,-300,-361.37,0
300,-300,-145.29,0
300,-300,31.81,0
300,-300,158.25,0
300,-300,243.67,0
300,-300,289.59,0
300,-300,299.24,0
300,-300,278.35,0
300,-300,230.68,0
300,-300,161.29,0
300,-300,71.53,0
300,-300,-37.95,0
300,-300,-170.1,0
300,-300,-327.25,0
300,-300,-513.33,0
300,-300,-729.81,0
300,-300,-976.31,0
300,-300,-1249,0
300,-300,-1541.24,0
300,-300,-1842.67,0
300,-300,-2142.37,0
300,-300,-2428.4,0
300,-300,-2691.51,0
300,-300,-2922.49,0
300,-300,-3117.33,0
300,-300,-3275.06,0
300,-300,-3397.88,0
300,-300,-3490.7,0
300,-300,-3559.42,0
300,-300,-3608.46,0
300,-300,-3641.67,0
300,-300,-3661.6,0
300,-300,-3666.43,0
300,-300,-3651.78,0
300,-300,-3614.07,0
300,-300,-3549.65,0
300,-300,-3456.22,0
300,-300,-3334.07,0
300,-300,-3186.9,0
300,-300,-3019.8,0
300,-300,-2841.52,0
300,-300,-2647.38,0
300,-300,-2461.01,0
300,-300,-2285.84,0
300,-300,-2130.15,0
300,-300,-1999.74,0
300,-300,-1897.97,0
300,-300,-1825.03,0
300,-300,-1780.47,0
300,-300,-1761.21,0
300,-300,-1763.62,0
300,-300,-1784.35,0
300,-300,-1815.1,0
300,-300,-1850.58,0
300,-300,-1882.27,0
300,-300,-1902.62,0
300,-300,-1903.53,0
300,-300,-1877.32,0
300,-300,-1817.1,0
300,-300,-1717.78,0
300,-300,-1577.21,0
300,-300,-1396.07,0
300,-300,-1177.94,0
300,-300,-933.45,0
300,-300,-674.9,0
300,-300,-414.36,0
300,-300,-165.99,0
300,-300,58.4,0
300,-300,247.21,0
300,-300,394.79,0
300,-300,496.32,0
300,-300,552.2,0
300,-300,564.32,0
300,-300,542.58,0
300,-300,488.19,0
300,-300,408.04,0
300,-300,305.69,0
300,-300,183.25,0
300,-300,39.98,0
300,-300,-126.18,0
300,-300,-317.56,0
300,-300,-536.24,0
300,-300,-781.9,0
300,-300,-1049.28,0
300,-300,-1334.5,0
300,-300,-1627.35,0
300,-300,-1917.18,0
300,-300,-2192.32,0
300,-300,-2442.8,0
300,-300,-2660.39,0
300,-300,-2841.98,0
300,-300,-2986.41,0
300,-300,-3097.65,0
300,-300,-3178.55,0
300,-300,-3236.67,0
300,-300,-3276.21,0
300,-300,-3301.31,0
300,-300,-3311.81,0
300,-300,-3306.84,0
300,-300,-3280.93,0
300,-300,-3218.85,0
300,-300,-3117.56,0
300,-300,-2969.58,0
300,-300,-2772.28,0
300,-300,-2529.21,0
300,-300,-2250.26,0
300,-300,-1950.79,0
300,-300,-1650.97,0
300,-300,-1374.19,0
300,-300,-1143.02,0
300,-300,-981.02,0
300,-300,-898.23,0
300,-300,-902.38,0
300,-300,-988.81,0
300,-300,-1145.06,0
300,-300,-1349.59,0
300,-300,-1574.97,0
300,-300,-1791.28,0
300,-300,-1969.11,0
300,-300,-2082.47,0
300,-300,-2114.38,0
300,-300,-2053.69,0
300,-300,-1900.83,0
300,-300,-1666.91,0
300,-300,-1370.82,0
300,-300,-1035.34,0
300,-300,-686.51,0
300,-300,-349.82,0
300,-300,-47.2,0
300,-300,204.42,0
300,-300,392.65,0
300,-300,519.22,0
300,-300,572.86,0
300,-300,574.65,0
300,-300,531.87,0
300,-300,453.95,0
300,-300,347.96,0
300,-300,220.17,0
300,-300,73.65,0
300,-300,-89.85,0
300,-300,-272.54,0
300,-300,-475.47,0
300,-300,-698.54,0
300,-300,-943.52,0
300,-300,-1208.26,0
300,-300,-1487.34,0
300,-300,-1773.77,0
300,-300,-2058.52,0
300,-300,-2333.12,0
300,-300,-2589.05,0
300,-300,-2819.25,0
300,-300,-3020.27,0
300,-300,-3190.01,0
300,-300,-3329.88,0
300,-300,-3442.87,0
300,-300,-3531.9,0
300,-300,-3601.48,0
300,-300,-3653.01,0
300,-300,-3687.56,0
300,-300,-3704.59,0
300,-300,-3700.22,0
300,-300,-3670.67,0
300,-300,-3611.03,0
300,-300,-3517.42,0
300,-300,-3387.78,0
300,-300,-3222.39,0
300,-300,-3025.62,0
300,-300,-2804.89,0
300,-300,-2570.97,0
300,-300,-2334.09,0
300,-300,-2113.33,0
300,-300,-1920.17,0
300,-300,-1766.04,0
300,-300,-1659.45,0
300,-300,-1604.47,0
300,-300,-1600.15,0
300,-300,-1640.73,0
300,-300,-1715.78,0
300,-300,-1811.35,0
300,-300,-1911.07,0
300,-300,-1998.81,0
300,-300,-2057.39,0
300,-300,-2074.53,0
300,-300,-2038.82,0
300,-300,-1946.56,0
300,-300,-1796.47,0
300,-300,-1594.89,0
300,-300,-1350.66,0
300,-300,-1077.97,0
300,-300,-791.49,0
300,-300,-504.78,0
300,-300,-240.56,0
300,-300,-6.36,0
300,-300,188.86,0
300,-300,340.36,0
300,-300,447.49,0
300,-300,512.1,0
300,-300,538.68,0
300,-300,532.45,0
300,-300,498.33,0
300,-300,439.73,0
300,-300,362.96,0
300,-300,263.88,0
300,-300,141.72,0
300,-300,-6.97,0
300,-300,-184.91,0
300,-300,-394.32,0
300,-300,-635.25,0
300,-300,-904.08,0
300,-300,-1197.03,0
300,-300,-1504.52,0
300,-300,-1816.21,0
300,-300,-2122.47,0
300,-300,-2412.38,0
300,-300,-2676.61,0
300,-300,-2909.52,0
300,-300,-3108.67,0
300,-300,-3274.25,0
300,-300,-3408.83,0
300,-300,-3515.95,0
300,-300,-3599.87,0
300,-300,-3660.87,0
300,-300,-3701.43,0
300,-300,-3720.05,0
300,-300,-3714.64,0
300,-300,-3681.72,0
300,-300,-3619.17,0
300,-300,-3525.82,0
300,-300,-3396.95,0
300,-300,-3237.25,0
300,-300,-3050.75,0
300,-300,-2843.77,0
300,-300,-2625.92,0
300,-300,-2408.37,0
300,-300,-2202.27,0
300,-300,-2018.27,0
300,-300,-1864.96,0
300,-300,-1748.79,0
300,-300,-1676.67,0
300,-300,-1644.98,0
300,-300,-1651.32,0
300,-300,-1689.7,0
300,-300,-1749.67,0
300,-300,-1820.01,0
300,-300,-1887.14,0
300,-300,-1937.5,0
300,-300,-1958.26,0
300,-300,-1938.81,0
300,-300,-1873.4,0
300,-300,-1756.51,0
300,-300,-1587.93,0
300,-300,-1374.09,0
300,-300,-1124.21,0
300,-300,-850.77,0
300,-300,-568.64,0
300,-300,-293.6,0
300,-300,-39.7,0
300,-300,181.34,0
300,-300,360.14,0
300,-300,494.23,0
300,-300,579.1,0
300,-300,622.05,0
300,-300,626.03,0
300,-300,596.57,0
300,-300,539.24,0
300,-300,458.46,0
300,-300,357.02,0
300,-300,235.49,0
300,-300,91.16,0
300,-300,-79.08,0
300,-300,-277.84,0
300,-300,-506.87,0
300,-300,-765.84,0
300,-300,-1050.75,0
300,-300,-1354.82,0
300,-300,-1668.38,0
300,-300,-1980.33,0
300,-300,-2279.09,0
300,-300,-2555.61,0
300,-300,-2802.24,0
300,-300,-3015.18,0
300,-300,-3194.35,0
300,-300,-3342.25,0
300,-300,-3462.53,0
300,-300,-3560.14,0
300,-300,-3638.94,0
300,-300,-3701.09,0
300,-300,-3745.93,0
300,-300,-3771.71,0
300,-300,-3773.97,0
300,-300,-3746.95,0
300,-300,-3689.08,0
300,-300,-3599.41,0
300,-300,-3481.22,0
300,-300,-3340.18,0
300,-300,-3185.09,0
300,-300,-3025.52,0
300,-300,-2858.28,0
300,-300,-2704.09,0
300,-300,-2566.94,0
300,-300,-2448.75,0
300,-300,-2352.56,0
300,-300,-2276.76,0
300,-300,-2218.96,0
300,-300,-2174.37,0
300,-300,-2139.89,0
300,-300,-2111.57,0
300,-300,-2091,0
300,-300,-2073.26,0
300,-300,-2058.14,0
300,-300,-2044.33,0
300,-300,-2029.12,0
300,-300,-2009.13,0
300,-300,-1979.18,0
300,-300,-1931.84,0
300,-300,-1860.24,0
300,-300,-1758.04,0
300,-300,-1622.35,0
300,-300,-1449.72,0
300,-300,-1248.05,0
300,-300,-1021.46,0
300,-300,-780.18,0
300,-300,-535.94,0
300,-300,-301.99,0
300,-300,-89.91,0
300,-300,90.48,0
300,-300,233.23,0
300,-300,334.23,0
300,-300,395.02,0
300,-300,421.58,0
300,-300,415.72,0
300,-300,382.71,0
300,-300,326.5,0
300,-300,248.66,0
300,-300,147.98,0
300,-300,21.01,0
300,-300,-136.42,0
300,-300,-328.83,0
300,-300,-557.75,0
300,-300,-819.8,0
300,-300,-1111.62,0
300,-300,-1424.04,0
300,-300,-1744.96,0
300,-300,-2060.73,0
300,-300,-2358.19,0
300,-300,-2626.72,0
300,-300,-2858.23,0
300,-300,-3050.05,0
300,-300,-3202.89,0
300,-300,-3319.51,0
300,-300,-3407.46,0
300,-300,-3472.62,0
300,-300,-3520.01,0
300,-300,-3552.81,0
300,-300,-3570.17,0
300,-300,-3570.32,0
300,-300,-3547.94,0
300,-300,-3495.54,0
300,-300,-3407.1,0
300,-300,-3277.08,0
300,-300,-3103.58,0
300,-300,-2891.03,0
300,-300,-2646.52,0
300,-300,-2382.93,0
300,-300,-2115.73,0
300,-300,-1863.49,0
300,-300,-1645.01,0
300,-300,-1474.95,0
300,-300,-1363.93,0
300,-300,-1316.93,0
300,-300,-1331.94,0
300,-300,-1401.66,0
300,-300,-1511.08,0
300,-300,-1641.33,0
300,-300,-1771.05,0
300,-300,-1878.97,0
300,-300,-1947.67,0
300,-300,-1960.22,0
300,-300,-1907.46,0
300,-300,-1785.91,0
300,-300,-1598.69,0
300,-300,-1356.06,0
300,-300,-1070.77,0
300,-300,-760.63,0
300,-300,-443.02,0
300,-300,-136.44,0
300,-300,143.49,0
300,-300,388.05,0
300,-300,576.67,0
300,-300,717.37,0
300,-300,810.79,0
300,-300,858.81,0
300,-300,866.2,0
300,-300,837.58,0
300,-300,778.57,0
300,-300,691.99,0
300,-300,579.62,0
300,-300,442.16,0
300,-300,281.84,0
300,-300,93.95,0
300,-300,-122.02,0
300,-300,-365.76,0
300,-300,-634.24,0
300,-300,-923.42,0
300,-300,-1225.41,0
300,-300,-1532.38,0
300,-300,-1834.57,0
300,-300,-2123.4,0
300,-300,-2388.65,0
300,-300,-2625.96,0
300,-300,-2831.68,0
300,-300,-3006.27,0
300,-300,-3150.62,0
300,-300,-3268.99,0
300,-300,-3364.4,0
300,-300,-3440.44,0
300,-300,-3499.98,0
300,-300,-3543,0
300,-300,-3566.03,0
300,-300,-3566.85,0
300,-300,-3539.27,0
300,-300,-3478.02,0
300,-300,-3378.24,0
300,-300,-3238.03,0
300,-300,-3058.65,0
300,-300,-2846.17,0
300,-300,-2604.49,0
300,-300,-2354.98,0
300,-300,-2109.46,0
300,-300,-1885.41,0
300,-300,-1698.31,0
300,-300,-1562.03,0
300,-300,-1484.16,0
300,-300,-1468.45,0
300,-300,-1511.19,0
300,-300,-1603.63,0
300,-300,-1730.35,0
300,-300,-1873.49,0
300,-300,-2011.06,0
300,-300,-2122.26,0
300,-300,-2188.49,0
300,-300,-2194.62,0
300,-300,-2132.02,0
300,-300,-1998.22,0
300,-300,-1797.47,0
300,-300,-1541.28,0
300,-300,-1244.48,0
300,-300,-925.8,0
300,-300,-606.81,0
300,-300,-306.3,0
300,-300,-39.98,0
300,-300,179.85,0
300,-300,347.71,0
300,-300,461.84,0
300,-300,525.13,0
300,-300,541.49,0
300,-300,519.62,0
300,-300,466.63,0
300,-300,387.5,0
300,-300,284.69,0
300,-300,160.26,0
300,-300,12.92,0
300,-300,-158.14,0
300,-300,-355.23,0
300,-300,-579.07,0
300,-300,-831.19,0
300,-300,-1106.45,0
300,-300,-1397.84,0
300,-300,-1698.39,0
300,-300,-1999.03,0
300,-300,-2288.78,0
300,-300,-2559.06,0
300,-300,-2801.82,0
300,-300,-3013.22,0
300,-300,-3191.05,0
300,-300,-3338.1,0
300,-300,-3457.03,0
300,-300,-3551.23,0
300,-300,-3624.38,0
300,-300,-3678.61,0
300,-300,-3713.03,0
300,-300,-3726.18,0
300,-300,-3713.93,0
300,-300,-3672.75,0
300,-300,-3598.25,0
300,-300,-3477.11,0
300,-300,-3315.18,0
300,-300,-3111.16,0
300,-300,-2872.73,0
300,-300,-2610.06,0
300,-300,-2338.02,0
300,-300,-2073.34,0
300,-300,-1833.21,0
300,-300,-1634.29,0
300,-300,-1492.15,0
300,-300,-1413.17,0
300,-300,-1399.87,0
300,-300,-1447.94,0
300,-300,-1545.88,0
300,-300,-1678.07,0
300,-300,-1823.51,0
300,-300,-1960.2,0
300,-300,-2065.85,0
300,-300,-2122.37,0
300,-300,-2116.2,0
300,-300,-2039.46,0
300,-300,-1891.88,0
300,-300,-1679.2,0
300,-300,-1414.84,0
300,-300,-1116.01,0
300,-300,-802.39,0
300,-300,-493.9,0
300,-300,-208.81,0
300,-300,38.03,0
300,-300,235.71,0
300,-300,381.37,0
300,-300,477.42,0
300,-300,521.63,0
300,-300,528.8,0
300,-300,503.94,0
300,-300,453.24,0
300,-300,380.81,0
300,-300,289.55,0
300,-300,178.67,0
300,-300,44.29,0
300,-300,-115.49,0
300,-300,-305,0
300,-300,-526.92,0
300,-300,-780.49,0
300,-300,-1062.72,0
300,-300,-1366.14,0
300,-300,-1680.93,0
300,-300,-1995.54,0
300,-300,-2297.74,0
300,-300,-2578.11,0
300,-300,-2827.54,0
300,-300,-3041.27,0
300,-300,-3218.8,0
300,-300,-3361.67,0
300,-300,-3474.23,0
300,-300,-3561,0
300,-300,-3627.22,0
300,-300,-3674.95,0
300,-300,-3705.12,0
300,-300,-3717.19,0
300,-300,-3707.42,0
300,-300,-3669.93,0
300,-300,-3604.51,0
300,-300,-3509.53,0
300,-300,-3388.4,0
300,-300,-3246.05,0
300,-300,-3091.29,0
300,-300,-2932.88,0
300,-300,-2781.28,0
300,-300,-2629.83,0
300,-300,-2500.74,0
300,-300,-2389.7,0
300,-300,-2299.22,0
300,-300,-2226.78,0
300,-300,-2168.69,0
300,-300,-2120.45,0
300,-300,-2078.39,0
300,-300,-2040.2,0
300,-300,-2006.67,0
300,-300,-1976.21,0
300,-300,-1950.31,0
300,-300,-1928.63,0
300,-300,-1910.19,0
300,-300,-1892.52,0
300,-300,-1870.64,0
300,-300,-1837.14,0
300,-300,-1783.57,0
300,-300,-1701.97,0
300,-300,-1587.15,0
300,-300,-1434.28,0
300,-300,-1242.21,0
300,-300,-1025.96,0
300,-300,-787.93,0
300,-300,-540.91,0
300,-300,-299.17,0
300,-300,-76.22,0
300,-300,115.85,0
300,-300,269.16,0
300,-300,376.95,0
300,-300,440.89,0
300,-300,465.93,0
300,-300,455.69,0
300,-300,416.09,0
300,-300,352.21,0
300,-300,267.61,0
300,-300,161.94,0
300,-300,32.85,0
300,-300,-123.78,0
300,-300,-314.14,0
300,-300,-538.84,0
300,-300,-797.86,0
300,-300,-1088.6,0
300,-300,-1402.99,0
300,-300,-1729.74,0
300,-300,-2055.19,0
300,-300,-2366.41,0
300,-300,-2651.17,0
300,-300,-2900.7,0
300,-300,-3110.81,0
300,-300,-3281.51,0
300,-300,-3414.39,0
300,-300,-3516.78,0
300,-300,-3595.09,0
300,-300,-3654.28,0
300,-300,-3698.45,0
300,-300,-3727.49,0
300,-300,-3738.42,0
300,-300,-3726.34,0
300,-300,-3682.01,0
300,-300,-3599.21,0
300,-300,-3468.71,0
300,-300,-3290.19,0
300,-300,-3065.43,0
300,-300,-2802.57,0
300,-300,-2515.31,0
300,-300,-2221.25,0
300,-300,-1940.98,0
300,-300,-1695.87,0
300,-300,-1505.75,0
300,-300,-1383.38,0
300,-300,-1334.37,0
300,-300,-1359.56,0
300,-300,-1449.54,0
300,-300,-1588.21,0
300,-300,-1754,0
300,-300,-1921.89,0
300,-300,-2067.17,0
300,-300,-2168.29,0
300,-300,-2206.03,0
300,-300,-2169.67,0
300,-300,-2053.67,0
300,-300,-1862.94,0
300,-300,-1608.59,0
300,-300,-1306.41,0
300,-300,-975.52,0
300,-300,-637.08,0
300,-300,-310.71,0
300,-300,-15.12,0
300,-300,237.43,0
300,-300,442.24,0
300,-300,582.12,0
300,-300,673.64,0
300,-300,719.31,0
300,-300,723.92,0
300,-300,693.88,0
300,-300,633.32,0
300,-300,547.41,0
300,-300,436.13,0
300,-300,302.79,0
300,-300,146.71,0
300,-300,-34.63,0
300,-300,-242.41,0
300,-300,-475.51,0
300,-300,-731.78,0
300,-300,-1005.57,0
300,-300,-1289.77,0
300,-300,-1575.27,0
300,-300,-1853.92,0
300,-300,-2114.74,0
300,-300,-2349.89,0
300,-300,-2555.78,0
300,-300,-2729.05,0
300,-300,-2870.7,0
300,-300,-2983.66,0
300,-300,-3071.94,0
300,-300,-3140.47,0
300,-300,-3193.17,0
300,-300,-3232.95,0
300,-300,-3258.55,0
300,-300,-3263.01,0
300,-300,-3241.57,0
300,-300,-3185.87,0
300,-300,-3088.63,0
300,-300,-2945.25,0
300,-300,-2755.67,0
300,-300,-2525.81,0
300,-300,-2267.38,0
300,-300,-1998.71,0
300,-300,-1740.79,0
300,-300,-1514.2,0
300,-300,-1341.77,0
300,-300,-1239.49,0
300,-300,-1216.13,0
300,-300,-1272.5,0
300,-300,-1400.14,0
300,-300,-1582.28,0
300,-300,-1795.25,0
300,-300,-2010.91,0
300,-300,-2200.07,0
300,-300,-2336.64,0
300,-300,-2398.83,0
300,-300,-2374.49,0
300,-300,-2259.69,0
300,-300,-2060.04,0
300,-300,-1789.39,0
300,-300,-1468.17,0
300,-300,-1120.1,0
300,-300,-770.86,0
300,-300,-442.04,0
300,-300,-153.98,0
300,-300,81.76,0
300,-300,257.03,0
300,-300,371.78,0
300,-300,430.14,0
300,-300,439.42,0
300,-300,407.38,0
300,-300,340.72,0
300,-300,245.86,0
300,-300,125.63,0
300,-300,-17.69,0
300,-300,-185.26,0
300,-300,-378.85,0
300,-300,-597.07,0
300,-300,-839.7,0
300,-300,-1102.07,0
300,-300,-1379.15,0
300,-300,-1664.41,0
300,-300,-1947.89,0
300,-300,-2219.85,0
300,-300,-2474.06,0
300,-300,-2703.3,0
300,-300,-2904.46,0
300,-300,-3075.43,0
300,-300,-3217.55,0
300,-300,-3333,0
300,-300,-3426.05,0
300,-300,-3500.6,0
300,-300,-3558.93,0
300,-300,-3599.84,0
300,-300,-3624.02,0
300,-300,-3626.89,0
300,-300,-3603.95,0
300,-300,-3547.95,0
300,-300,-3453.65,0
300,-300,-3316.85,0
300,-300,-3138.55,0
300,-300,-2912.7,0
300,-300,-2660.9,0
300,-300,-2389.99,0
300,-300,-2119.82,0
300,-300,-1867.77,0
300,-300,-1652.43,0
300,-300,-1489.73,0
300,-300,-1391.52,0
300,-300,-1362.57,0
300,-300,-1401.76,0
300,-300,-1498.13,0
300,-300,-1637.54,0
300,-300,-1796.37,0
300,-300,-1952.69,0
300,-300,-2081.25,0
300,-300,-2159.92,0
300,-300,-2171.72,0
300,-300,-2106.91,0
300,-300,-1962.51,0
300,-300,-1744.96,0
300,-300,-1466.79,0
300,-300,-1147.36,0
300,-300,-806.23,0
300,-300,-467.89,0
300,-300,-152.88,0
300,-300,121.15,0
300,-300,343.39,0
300,-300,508.49,0
300,-300,616.83,0
300,-300,671.69,0
300,-300,681.67,0
300,-300,654.29,0
300,-300,597.67,0
300,-300,516.97,0
300,-300,414.1,0
300,-300,290.34,0
300,-300,145.91,0
300,-300,-25.61,0
300,-300,-228.13,0
300,-300,-463.04,0
300,-300,-727.24,0
300,-300,-1019.33,0
300,-300,-1331.66,0
300,-300,-1656.12,0
300,-300,-1981.22,0
300,-300,-2296.34,0
300,-300,-2589.76,0
300,-300,-2852.35,0
300,-300,-3079.22,0
300,-300,-3273.02,0
300,-300,-3430.1,0
300,-300,-3555.08,0
300,-300,-3651.58,0
300,-300,-3722.87,0
300,-300,-3772.07,0
300,-300,-3799.76,0
300,-300,-3804.13,0
300,-300,-3782.36,0
300,-300,-3731.14,0
300,-300,-3642.89,0
300,-300,-3516.29,0
300,-300,-3349.52,0
300,-300,-3146.56,0
300,-300,-2914.84,0
300,-300,-2664.95,0
300,-300,-2412.05,0
300,-300,-2172.25,0
300,-300,-1962.94,0
300,-300,-1797.78,0
300,-300,-1690.81,0
300,-300,-1646.77,0
300,-300,-1664.23,0
300,-300,-1738.87,0
300,-300,-1858.01,0
300,-300,-2003.64,0
300,-300,-2155.12,0
300,-300,-2289.86,0
300,-300,-2387.47,0
300,-300,-2430.37,0
300,-300,-2405.9,0
300,-300,-2307.66,0
300,-300,-2135.04,0
300,-300,-1896.2,0
300,-300,-1604.77,0
300,-300,-1277.53,0
300,-300,-934.29,0
300,-300,-594.75,0
300,-300,-277.93,0
300,-300,0.69,0
300,-300,230.93,0
300,-300,411.42,0
300,-300,532.55,0
300,-300,609.37,0
300,-300,645.2,0
300,-300,645.86,0
300,-300,616.3,0
300,-300,561.31,0
300,-300,482.52,0
300,-300,377.26,0
300,-300,245.22,0
300,-300,82.55,0
300,-300,-115.02,0
300,-300,-348.53,0
300,-300,-617.08,0
300,-300,-916.37,0
300,-300,-1237.85,0
300,-300,-1569.91,0
300,-300,-1899.88,0
300,-300,-2215.14,0
300,-300,-2502.99,0
300,-300,-2755.3,0
300,-300,-2967.43,0
300,-300,-3138.88,0
300,-300,-3273.71,0
300,-300,-3378.03,0
300,-300,-3459.88,0
300,-300,-3525.89,0
300,-300,-3581.86,0
300,-300,-3632.14,0
300,-300,-3674.37,0
300,-300,-3703.82,0
300,-300,-3715.69,0
300,-300,-3701.64,0
300,-300,-3654.14,0
300,-300,-3567.9,0
300,-300,-3440.88,0
300,-300,-3276.72,0
300,-300,-3085.66,0
300,-300,-2875.01,0
300,-300,-2663.9,0
300,-300,-2467.6,0
300,-300,-2304.82,0
300,-300,-2186.31,0
300,-300,-2120.3,0
300,-300,-2108.29,0
300,-300,-2145.72,0
300,-300,-2221.49,0
300,-300,-2320.89,0
300,-300,-2423.95,0
300,-300,-2512.3,0
300,-300,-2560.73,0
300,-300,-2557.26,0
300,-300,-2489.76,0
300,-300,-2352.21,0
300,-300,-2145.28,0
300,-300,-1875.65,0
300,-300,-1555.85,0
300,-300,-1203.53,0
300,-300,-836.43,0
300,-300,-473.85,0
300,-300,-135.94,0
300,-300,164.07,0
300,-300,416.51,0
300,-300,614.95,0
300,-300,759.23,0
300,-300,850.8,0
300,-300,894.75,0
300,-300,896.07,0
300,-300,859.12,0
300,-300,788.96,0
300,-300,690.08,0
300,-300,562.42,0
300,-300,406.13,0
300,-300,221.57,0
300,-300,8.64,0
300,-300,-230.97,0
300,-300,-494.63,0
300,-300,-777.87,0
300,-300,-1075.19,0
300,-300,-1375.21,0
300,-300,-1670.18,0
300,-300,-1950.83,0
300,-300,-2209.82,0
300,-300,-2441.39,0
300,-300,-2642.72,0
300,-300,-2813.75,0
300,-300,-2957.13,0
300,-300,-3076.41,0
300,-300,-3177.66,0
300,-300,-3262.1,0
300,-300,-3332.61,0
300,-300,-3388.5,0
300,-300,-3425.44,0
300,-300,-3436.57,0
300,-300,-3412.8,0
300,-300,-3345.36,0
300,-300,-3228.11,0
300,-300,-3058.49,0
300,-300,-2834.83,0
300,-300,-2571.03,0
300,-300,-2281.66,0
300,-300,-1986.23,0
300,-300,-1707.42,0
300,-300,-1467.29,0
300,-300,-1285.87,0
300,-300,-1177.03,0
300,-300,-1148.14,0
300,-300,-1196.37,0
300,-300,-1310.58,0
300,-300,-1469.73,0
300,-300,-1649.66,0
300,-300,-1820.84,0
300,-300,-1955.08,0
300,-300,-2027.28,0
300,-300,-2019.66,0
300,-300,-1922.71,0
300,-300,-1736.48,0
300,-300,-1471.02,0
300,-300,-1143.27,0
300,-300,-776.48,0
300,-300,-397.19,0
300,-300,-31.2,0
300,-300,299.14,0
300,-300,575.87,0
300,-300,787.84,0
300,-300,930.24,0
300,-300,1004.61,0
300,-300,1015.44,0
300,-300,972.7,0
300,-300,882.51,0
300,-300,756.63,0
300,-300,599.77,0
300,-300,413.94,0
300,-300,201.29,0
300,-300,-37.62,0
300,-300,-302.61,0
300,-300,-592.86,0
300,-300,-906.66,0
300,-300,-1237.64,0
300,-300,-1580.4,0
300,-300,-1924.68,0
300,-300,-2261.64,0
300,-300,-2581.08,0
300,-300,-2874.97,0
300,-300,-3136.57,0
300,-300,-3362.54,0
300,-300,-3551.79,0
300,-300,-3706.78,0
300,-300,-3828.87,0
300,-300,-3923.7,0
300,-300,-3993.91,0
300,-300,-4041.75,0
300,-300,-4066.94,0
300,-300,-4067.97,0
300,-300,-4041.95,0
300,-300,-3985.77,0
300,-300,-3896.81,0
300,-300,-3764.56,0
300,-300,-3592.02,0
300,-300,-3378.6,0
300,-300,-3132.12,0
300,-300,-2861.48,0
300,-300,-2579.77,0
300,-300,-2301.6,0
300,-300,-2043.66,0
300,-300,-1820.61,0
300,-300,-1646.13,0
300,-300,-1531.56,0
300,-300,-1478.31,0
300,-300,-1483.27,0
300,-300,-1541.04,0
300,-300,-1637.06,0
300,-300,-1754.05,0
300,-300,-1871.15,0
300,-300,-1967.96,0
300,-300,-2024.8,0
300,-300,-2027.03,0
300,-300,-1964.95,0
300,-300,-1834.48,0
300,-300,-1636.7,0
300,-300,-1382.24,0
300,-300,-1085.16,0
300,-300,-763.51,0
300,-300,-437.21,0
300,-300,-126.19,0
300,-300,152.8,0
300,-300,386.47,0
300,-300,566.59,0
300,-300,691.65,0
300,-300,758.37,0
300,-300,779.11,0
300,-300,759.02,0
300,-300,704.78,0
300,-300,622.84,0
300,-300,517.79,0
300,-300,391.54,0
300,-300,243.39,0
300,-300,72.03,0
300,-300,-126.81,0
300,-300,-355.33,0
300,-300,-614.93,0
300,-300,-903.01,0
300,-300,-1215.49,0
300,-300,-1543.64,0
300,-300,-1876.97,0
300,-300,-2203.65,0
300,-300,-2513.75,0
300,-300,-2795.95,0
300,-300,-3044.11,0
300,-300,-3255.48,0
300,-300,-3428.19,0
300,-300,-3565.81,0
300,-300,-3672.41,0
300,-300,-3752.44,0
300,-300,-3809.06,0
300,-300,-3844.06,0
300,-300,-3859.17,0
300,-300,-3849.94,0
300,-300,-3813.03,0
300,-300,-3746.74,0
300,-300,-3650.58,0
300,-300,-3525.79,0
300,-300,-3378.1,0
300,-300,-3213.71,0
300,-300,-3042.16,0
300,-300,-2872.86,0
300,-300,-2701.15,0
300,-300,-2547.64,0
300,-300,-2412.89,0
300,-300,-2299.37,0
300,-300,-2207.82,0
300,-300,-2135.44,0
300,-300,-2079.41,0
300,-300,-2036.11,0
300,-300,-2002.78,0
300,-300,-1977.21,0
300,-300,-1960.4,0
300,-300,-1948.17,0
300,-300,-1939.88,0
300,-300,-1933.34,0
300,-300,-1924.47,0
300,-300,-1907.1,0
300,-300,-1874.54,0
300,-300,-1818.68,0
300,-300,-1732.45,0
300,-300,-1609.88,0
300,-300,-1449.11,0
300,-300,-1249.06,0
300,-300,-1023.03,0
300,-300,-776.75,0
300,-300,-522.98,0
300,-300,-274.61,0
300,-300,-46.12,0
300,-300,151.75,0
300,-300,309.83,0
300,-300,424.65,0
300,-300,495.13,0
300,-300,524.71,0
300,-300,521.7,0
300,-300,489.5,0
300,-300,433.04,0
300,-300,355.83,0
300,-300,258.06,0
300,-300,137.48,0
300,-300,-10.47,0
300,-300,-190.13,0
300,-300,-404.97,0
300,-300,-654.72,0
300,-300,-935.61,0
300,-300,-1240.85,0
300,-300,-1560.12,0
300,-300,-1880.16,0
300,-300,-2187.7,0
300,-300,-2470.5,0
300,-300,-2720.29,0
300,-300,-2932.79,0
300,-300,-3107.78,0
300,-300,-3249.03,0
300,-300,-3362.03,0
300,-300,-3452.98,0
300,-300,-3528.47,0
300,-300,-3591,0
300,-300,-3640.94,0
300,-300,-3673.77,0
300,-300,-3684.14,0
300,-300,-3663.51,0
300,-300,-3602.16,0
300,-300,-3492.69,0
300,-300,-3332.28,0
300,-300,-3121.07,0
300,-300,-2867.07,0
300,-300,-2582.26,0
300,-300,-2284.54,0
300,-300,-1993.22,0
300,-300,-1729.34,0
300,-300,-1515.19,0
300,-300,-1362.86,0
300,-300,-1281.09,0
300,-300,-1272.91,0
300,-300,-1331.88,0
300,-300,-1444.65,0
300,-300,-1591.66,0
300,-300,-1750.56,0
300,-300,-1896.25,0
300,-300,-2006.28,0
300,-300,-2062.74,0
300,-300,-2051.42,0
300,-300,-1963.22,0
300,-300,-1801.46,0
300,-300,-1572.74,0
300,-300,-1290.54,0
300,-300,-971.76,0
300,-300,-636.47,0
300,-300,-304.07,0
300,-300,6.26,0
300,-300,279.86,0
300,-300,508.82,0
300,-300,675.14,0
300,-300,791,0
300,-300,858.85,0
300,-300,882.23,0
300,-300,866.87,0
300,-300,817.85,0
300,-300,740.42,0
300,-300,637.56,0
300,-300,510.99,0
300,-300,358.98,0
300,-300,182.97,0
300,-300,-21.82,0
300,-300,-255.42,0
300,-300,-517.03,0
300,-300,-803.03,0
300,-300,-1107.45,0
300,-300,-1421.7,0
300,-300,-1736.95,0
300,-300,-2042.87,0
300,-300,-2330.04,0
300,-300,-2590.9,0
300,-300,-2820.77,0
300,-300,-3017.68,0
300,-300,-3183.04,0
300,-300,-3319.17,0
300,-300,-3430.58,0
300,-300,-3519.78,0
300,-300,-3591.72,0
300,-300,-3644.76,0
300,-300,-3678.47,0
300,-300,-3688.6,0
300,-300,-3670.72,0
300,-300,-3619.14,0
300,-300,-3529.21,0
300,-300,-3397.68,0
300,-300,-3224.96,0
300,-300,-3015.67,0
300,-300,-2772.4,0
300,-300,-2516.08,0
300,-300,-2260.25,0
300,-300,-2021.18,0
300,-300,-1816.7,0
300,-300,-1660.48,0
300,-300,-1563.26,0
300,-300,-1529.25,0
300,-300,-1557.3,0
300,-300,-1638.48,0
300,-300,-1759.32,0
300,-300,-1900.35,0
300,-300,-2040.04,0
300,-300,-2156.25,0
300,-300,-2228.98,0
300,-300,-2241.6,0
300,-300,-2183.24,0
300,-300,-2049.53,0
300,-300,-1844.48,0
300,-300,-1576.91,0
300,-300,-1263.18,0
300,-300,-921.94,0
300,-300,-574.55,0
300,-300,-242.46,0
300,-300,56.07,0
300,-300,308.51,0
300,-300,505.32,0
300,-300,644.8,0
300,-300,728.43,0
300,-300,761.65,0
300,-300,749.98,0
300,-300,701.14,0
300,-300,624.43,0
300,-300,520.93,0
300,-300,393.46,0
300,-300,241.9,0
300,-300,64.81,0
300,-300,-139.55,0
300,-300,-373.26,0
300,-300,-635.14,0
300,-300,-923.34,0
300,-300,-1232.23,0
300,-300,-1552.04,0
300,-300,-1873.7,0
300,-300,-2186.85,0
300,-300,-2480.35,0
300,-300,-2746.37,0
300,-300,-2978.86,0
300,-300,-3176.12,0
300,-300,-3338.9,0
300,-300,-3470.61,0
300,-300,-3576.44,0
300,-300,-3660.31,0
300,-300,-3724.64,0
300,-300,-3770.72,0
300,-300,-3797.42,0
300,-300,-3801.04,0
300,-300,-3777.57,0
300,-300,-3722.54,0
300,-300,-3627.02,0
300,-300,-3490.13,0
300,-300,-3311.48,0
300,-300,-3095.96,0
300,-300,-2851.58,0
300,-300,-2591.46,0
300,-300,-2330.82,0
300,-300,-2086.03,0
300,-300,-1872.6,0
300,-300,-1704.02,0
300,-300,-1593.18,0
300,-300,-1541.84,0
300,-300,-1549.1,0
300,-300,-1608.16,0
300,-300,-1706.65,0
300,-300,-1827.59,0
300,-300,-1951.12,0
300,-300,-2056.93,0
300,-300,-2126.05,0
300,-300,-2142.75,0
300,-300,-2097.67,0
300,-300,-1985.09,0
300,-300,-1805.42,0
300,-300,-1567.23,0
300,-300,-1283.75,0
300,-300,-971.08,0
300,-300,-648.13,0
300,-300,-334.25,0
300,-300,-46.32,0
300,-300,201.97,0
300,-300,399.8,0
300,-300,547.22,0
300,-300,637.16,0
300,-300,681.5,0
300,-300,685.69,0
300,-300,655.14,0
300,-300,596.19,0
300,-300,514.25,0
300,-300,411.86,0
300,-300,289.53,0
300,-300,143.89,0
300,-300,-27.47,0
300,-300,-227.49,0
300,-300,-459.02,0
300,-300,-721.4,0
300,-300,-1011.52,0
300,-300,-1323.66,0
300,-300,-1645.55,0
300,-300,-1967.82,0
300,-300,-2277.8,0
300,-300,-2567.82,0
300,-300,-2827.1,0
300,-300,-3051.42,0
300,-300,-3240.71,0
300,-300,-3395.65,0
300,-300,-3521.15,0
300,-300,-3621.71,0
300,-300,-3702.04,0
300,-300,-3763.51,0
300,-300,-3806.54,0
300,-300,-3831.28,0
300,-300,-3832.84,0
300,-300,-3805.56,0
300,-300,-3747.87,0
300,-300,-3658.49,0
300,-300,-3539.14,0
300,-300,-3394.81,0
300,-300,-3232.1,0
300,-300,-3059.35,0
300,-300,-2871.04,0
300,-300,-2691.8,0
300,-300,-2524.88,0
300,-300,-2376.3,0
300,-300,-2250.06,0
300,-300,-2148.84,0
300,-300,-2072.63,0
300,-300,-2020.31,0
300,-300,-1989.6,0
300,-300,-1977.1,0
300,-300,-1981.16,0
300,-300,-1995.93,0
300,-300,-2015.93,0
300,-300,-2036.11,0
300,-300,-2048.28,0
300,-300,-2045.14,0
300,-300,-2018.1,0
300,-300,-1959.64,0
300,-300,-1862.72,0
300,-300,-1723.77,0
300,-300,-1542.74,0
300,-300,-1321.17,0
300,-300,-1071.62,0
300,-300,-803.69,0
300,-300,-530.75,0
300,-300,-266.96,0
300,-300,-25.36,0
300,-300,183.2,0
300,-300,350.81,0
300,-300,474.4,0
300,-300,551.37,0
300,-300,587.05,0
300,-300,588.86,0
300,-300,559.64,0
300,-300,504.38,0
300,-300,425.98,0
300,-300,324.74,0
300,-300,198.37,0
300,-300,42.79,0
300,-300,-146.13,0
300,-300,-372.28,0
300,-300,-635.35,0
300,-300,-929.78,0
300,-300,-1250.38,0
300,-300,-1585.1,0
300,-300,-1921.65,0
300,-300,-2245.15,0
300,-300,-2544.12,0
300,-300,-2808.48,0
300,-300,-3033.17,0
300,-300,-3217.5,0
300,-300,-3365.55,0
300,-300,-3479.94,0
300,-300,-3569.82,0
300,-300,-3640.13,0
300,-300,-3694.14,0
300,-300,-3732.3,0
300,-300,-3752.49,0
300,-300,-3749.05,0
300,-300,-3716.59,0
300,-300,-3637.7,0
300,-300,-3511.91,0
300,-300,-3332.18,0
300,-300,-3102.04,0
300,-300,-2829.01,0
300,-300,-2527.97,0
300,-300,-2217.18,0
300,-300,-1919.32,0
300,-300,-1655.8,0
300,-300,-1454.2,0
300,-300,-1324.84,0
300,-300,-1278.77,0
300,-300,-1313.02,0
300,-300,-1420.9,0
300,-300,-1584.57,0
300,-300,-1779.04,0
300,-300,-1976.12,0
300,-300,-2146.51,0
300,-300,-2264.17,0
300,-300,-2309.74,0
300,-300,-2268.1,0
300,-300,-2136.99,0
300,-300,-1918.73,0
300,-300,-1628.59,0
300,-300,-1286.84,0
300,-300,-917.04,0
300,-300,-543.95,0
300,-300,-190.75,0
300,-300,123.06,0
300,-300,382.12,0
300,-300,583.85,0
300,-300,710.94,0
300,-300,783.33,0
300,-300,805.66,0
300,-300,785.91,0
300,-300,730.83,0
300,-300,647.34,0
300,-300,539.19,0
300,-300,409.04,0
300,-300,254.65,0
300,-300,75.53,0
300,-300,-129.49,0
300,-300,-362.58,0
300,-300,-623.44,0
300,-300,-907.35,0
300,-300,-1207.7,0
300,-300,-1514.77,0
300,-300,-1817.91,0
300,-300,-2105.39,0
300,-300,-2367.59,0
300,-300,-2596.97,0
300,-300,-2789.15,0
300,-300,-2943.86,0
300,-300,-3063.72,0
300,-300,-3153.76,0
300,-300,-3220.49,0
300,-300,-3269.59,0
300,-300,-3305.44,0
300,-300,-3328.77,0
300,-300,-3341.55,0
300,-300,-3336.1,0
300,-300,-3306.35,0
300,-300,-3244.85,0
300,-300,-3144.81,0
300,-300,-3000.79,0
300,-300,-2813.06,0
300,-300,-2586,0
300,-300,-2330.6,0
300,-300,-2061.63,0
300,-300,-1798.93,0
300,-300,-1564.12,0
300,-300,-1374.03,0
300,-300,-1244.98,0
300,-300,-1187.26,0
300,-300,-1202.53,0
300,-300,-1285.75,0
300,-300,-1423.17,0
300,-300,-1595.94,0
300,-300,-1779.42,0
300,-300,-1949.38,0
300,-300,-2080.91,0
300,-300,-2154.2,0
300,-300,-2153.58,0
300,-300,-2073.35,0
300,-300,-1913.81,0
300,-300,-1683.76,0
300,-300,-1398.48,0
300,-300,-1077.78,0
300,-300,-742.94,0
300,-300,-417.03,0
300,-300,-115.91,0
300,-300,136.53,0
300,-300,335.56,0
300,-300,475.76,0
300,-300,558.85,0
300,-300,588.26,0
300,-300,571.82,0
300,-300,516.63,0
300,-300,428.6,0
300,-300,313.62,0
300,-300,178.41,0
300,-300,20.31,0
300,-300,-160.37,0
300,-300,-364.55,0
300,-300,-592.37,0
300,-300,-843.73,0
300,-300,-1115.25,0
300,-300,-1402.97,0
300,-300,-1701.24,0
300,-300,-2000.35,0
300,-300,-2290.27,0
300,-300,-2564.33,0
300,-300,-2814.23,0
300,-300,-3034.85,0
300,-300,-3223.16,0
300,-300,-3379.62,0
300,-300,-3505.81,0
300,-300,-3605.56,0
300,-300,-3684.02,0
300,-300,-3742.44,0
300,-300,-3781.66,0
300,-300,-3802.17,0
300,-300,-3801.01,0
300,-300,-3774.85,0
300,-300,-3719.55,0
300,-300,-3632.93,0
300,-300,-3513.04,0
300,-300,-3360.43,0
300,-300,-3161.42,0
300,-300,-2937.69,0
300,-300,-2691.72,0
300,-300,-2437.04,0
300,-300,-2186.87,0
300,-300,-1955.56,0
300,-300,-1756.67,0
300,-300,-1601.86,0
300,-300,-1498.69,0
300,-300,-1451.11,0
300,-300,-1458.19,0
300,-300,-1512.91,0
300,-300,-1603.07,0
300,-300,-1713.36,0
300,-300,-1824.82,0
300,-300,-1919.06,0
300,-300,-1976.7,0
300,-300,-1983.08,0
300,-300,-1926.78,0
300,-300,-1803.26,0
300,-300,-1613.11,0
300,-300,-1366.72,0
300,-300,-1073.2,0
300,-300,-754.65,0
300,-300,-428.48,0
300,-300,-116.86,0
300,-300,163.74,0
300,-300,398.72,0
300,-300,580.83,0
300,-300,706.44,0
300,-300,777.06,0
300,-300,798.9,0
300,-300,779.83,0
300,-300,728.92,0
300,-300,652.56,0
300,-300,554.63,0
300,-300,437.83,0
300,-300,300.27,0
300,-300,138.97,0
300,-300,-51.25,0
300,-300,-276.25,0
300,-300,-536.85,0
300,-300,-832.09,0
300,-300,-1157.52,0
300,-300,-1503.95,0
300,-300,-1859.72,0
300,-300,-2210.93,0
300,-300,-2544.81,0
300,-300,-2849.29,0
300,-300,-3116.26,0
300,-300,-3342.25,0
300,-300,-3527.02,0
300,-300,-3673.56,0
300,-300,-3788.29,0
300,-300,-3876.75,0
300,-300,-3944.55,0
300,-300,-3992.69,0
300,-300,-4022.14,0
300,-300,-4028.96,0
300,-300,-4008.88,0
300,-300,-3959.62,0
300,-300,-3873.48,0
300,-300,-3751.09,0
300,-300,-3593.02,0
300,-300,-3403.55,0
300,-300,-3190.53,0
300,-300,-2964.1,0
300,-300,-2736.27,0
300,-300,-2519.88,0
300,-300,-2325.44,0
300,-300,-2162.84,0
300,-300,-2037.34,0
300,-300,-1952.33,0
300,-300,-1905.72,0
300,-300,-1893.21,0
300,-300,-1907.92,0
300,-300,-1941.04,0
300,-300,-1982.87,0
300,-300,-2022.8,0
300,-300,-2050.97,0
300,-300,-2059.33,0
300,-300,-2038.65,0
300,-300,-1983.97,0
300,-300,-1891.19,0
300,-300,-1758.08,0
300,-300,-1585.72,0
300,-300,-1377.88,0
300,-300,-1141.47,0
300,-300,-885.33,0
300,-300,-621.41,0
300,-300,-356.33,0
300,-300,-118.61,0
300,-300,97.71,0
300,-300,283.27,0
300,-300,432.06,0
300,-300,540.95,0
300,-300,610.15,0
300,-300,642.3,0
300,-300,641.41,0
300,-300,612.02,0
300,-300,555.39,0
300,-300,474.99,0
300,-300,369.15,0
300,-300,235.71,0
300,-300,71.33,0
300,-300,-127.72,0
300,-300,-362.62,0
300,-300,-632.52,0
300,-300,-931.56,0
300,-300,-1252.72,0
300,-300,-1586.31,0
300,-300,-1918.88,0
300,-300,-2237.84,0
300,-300,-2532.44,0
300,-300,-2793.95,0
300,-300,-3017.92,0
300,-300,-3203.4,0
300,-300,-3353.27,0
300,-300,-3472.1,0
300,-300,-3565.81,0
300,-300,-3640.7,0
300,-300,-3697.68,0
300,-300,-3739.46,0
300,-300,-3763.71,0
300,-300,-3766.14,0
300,-300,-3742.01,0
300,-300,-3685.47,0
300,-300,-3592.65,0
300,-300,-3461,0
300,-300,-3291.58,0
300,-300,-3075.95,0
300,-300,-2835.16,0
300,-300,-2579.4,0
300,-300,-2323.3,0
300,-300,-2082.55,0
300,-300,-1872.78,0
300,-300,-1707.45,0
300,-300,-1596.31,0
300,-300,-1543.22,0
300,-300,-1547.31,0
300,-300,-1601.87,0
300,-300,-1692.8,0
300,-300,-1803.29,0
300,-300,-1913.83,0
300,-300,-2002.64,0
300,-300,-2051,0
300,-300,-2042.07,0
300,-300,-1965.22,0
300,-300,-1815.32,0
300,-300,-1594.33,0
300,-300,-1310.71,0
300,-300,-977.58,0
300,-300,-615.46,0
300,-300,-245.36,0
300,-300,111.34,0
300,-300,435.52,0
300,-300,711.55,0
300,-300,929.99,0
300,-300,1085.82,0
300,-300,1180.31,0
300,-300,1215.54,0
300,-300,1199.56,0
300,-300,1141.4,0
300,-300,1047.48,0
300,-300,923.34,0
300,-300,773.39,0
300,-300,598.36,0
300,-300,398.35,0
300,-300,171.58,0
300,-300,-84.3,0
300,-300,-368.57,0
300,-300,-678.45,0
300,-300,-1008.62,0
300,-300,-1350.65,0
300,-300,-1694.38,0
300,-300,-2028.12,0
300,-300,-2340.64,0
300,-300,-2623.3,0
300,-300,-2869.56,0
300,-300,-3078.6,0
300,-300,-3250.44,0
300,-300,-3391.03,0
300,-300,-3505.11,0
300,-300,-3599.19,0
300,-300,-3677.42,0
300,-300,-3742.1,0
300,-300,-3791.54,0
300,-300,-3822.02,0
300,-300,-3828.07,0
300,-300,-3799.82,0
300,-300,-3730.38,0
300,-300,-3612.02,0
300,-300,-3444.32,0
300,-300,-3229.95,0
300,-300,-2978.04,0
300,-300,-2702.31,0
300,-300,-2420.16,0
300,-300,-2150.79,0
300,-300,-1914.53,0
300,-300,-1733.03,0
300,-300,-1615.3,0
300,-300,-1566.7,0
300,-300,-1587.92,0
300,-300,-1669.58,0
300,-300,-1795.96,0
300,-300,-1945.59,0
300,-300,-2094.53,0
300,-300,-2217.92,0
300,-300,-2293.89,0
300,-300,-2306.48,0
300,-300,-2243.87,0
300,-300,-2101.58,0
300,-300,-1885.67,0
300,-300,-1606.82,0
300,-300,-1282.72,0
300,-300,-932.85,0
300,-300,-579.71,0
300,-300,-244.4,0
300,-300,55.04,0
300,-300,305.55,0
300,-300,502.19,0
300,-300,630.3,0
300,-300,706.42,0
300,-300,735.3,0
300,-300,723.27,0
300,-300,677.31,0
300,-300,603.01,0
300,-300,505.6,0
300,-300,386.29,0
300,-300,244.62,0
300,-300,78.13,0
300,-300,-114.96,0
300,-300,-337.67,0
300,-300,-591.22,0
300,-300,-873.2,0
300,-300,-1178.36,0
300,-300,-1498.87,0
300,-300,-1823.96,0
300,-300,-2143.73,0
300,-300,-2446.47,0
300,-300,-2723.17,0
300,-300,-2967.73,0
300,-300,-3175.93,0
300,-300,-3347.7,0
300,-300,-3486.22,0
300,-300,-3594.74,0
300,-300,-3677.93,0
300,-300,-3738.44,0
300,-300,-3779.53,0
300,-300,-3798.93,0
300,-300,-3795.22,0
300,-300,-3763.5,0
300,-300,-3701.62,0
300,-300,-3608.19,0
300,-300,-3484.13,0
300,-300,-3332.17,0
300,-300,-3158.96,0
300,-300,-2971.77,0
300,-300,-2767.82,0
300,-300,-2569.7,0
300,-300,-2383.63,0
300,-300,-2219.27,0
300,-300,-2084.15,0
300,-300,-1980.99,0
300,-300,-1912.34,0
300,-300,-1876.65,0
300,-300,-1871.25,0
300,-300,-1890.95,0
300,-300,-1931.29,0
300,-300,-1981.46,0
300,-300,-2033.41,0
300,-300,-2078.34,0
300,-300,-2106.66,0
300,-300,-2108.84,0
300,-300,-2077.01,0
300,-300,-2004.56,0
300,-300,-1887.74,0
300,-300,-1725.23,0
300,-300,-1515.5,0
300,-300,-1266.09,0
300,-300,-988.33,0
300,-300,-693.89,0
300,-300,-398.12,0
300,-300,-114.08,0
300,-300,143.63,0
300,-300,363.68,0
300,-300,536.53,0
300,-300,657.33,0
300,-300,721.5,0
300,-300,731.76,0
300,-300,695.41,0
300,-300,614.72,0
300,-300,497.17,0
300,-300,349.73,0
300,-300,178.89,0
300,-300,-9.37,0
300,-300,-211.63,0
300,-300,-424,0
300,-300,-643.74,0
300,-300,-864.49,0
300,-300,-1079.16,0
300,-300,-1285.06,0
300,-300,-1477.06,0
300,-300,-1649.95,0
300,-300,-1800.54,0
300,-300,-1926.87,0
300,-300,-2031.88,0
300,-300,-2119.26,0
300,-300,-2200.3,0
300,-300,-2278.83,0
300,-300,-2362.84,0
300,-300,-2456.04,0
300,-300,-2560.21,0
300,-300,-2671.75,0
300,-300,-2784.52,0
300,-300,-2888.03,0
300,-300,-2972.56,0
300,-300,-3029.57,0
300,-300,-3049.73,0
300,-300,-3028.79,0
300,-300,-2966.11,0
300,-300,-2866.05,0
300,-300,-2739.05,0
300,-300,-2597.36,0
300,-300,-2456.34,0
300,-300,-2330.82,0
300,-300,-2235.46,0
300,-300,-2184.94,0
300,-300,-2185.31,0
300,-300,-2239.59,0
300,-300,-2347.18,0
300,-300,-2501.16,0
300,-300,-2692.08,0
300,-300,-2905.36,0
300,-300,-3126,0
300,-300,-3336.05,0
300,-300,-3519.4,0
300,-300,-3659.4,0
300,-300,-3743.23,0
300,-300,-3759.38,0
300,-300,-3703.39,0
300,-300,-3573.59,0
300,-300,-3374.12,0
300,-300,-3114.04,0
300,-300,-2807.41,0
300,-300,-2471.75,0
300,-300,-2127.43,0
300,-300,-1794.47,0
300,-300,-1487.28,0
300,-300,-1232.73,0
300,-300,-1027.48,0
300,-300,-874.27,0
300,-300,-771.83,0
300,-300,-712.13,0
300,-300,-684.73,0
300,-300,-676.14,0
300,-300,-672.64,0
300,-300,-663.41,0
300,-300,-642.39,0
300,-300,-605.35,0
300,-300,-560.32,0
300,-300,-515.64,0
300,-300,-482.54,0
300,-300,-472.55,0
300,-300,-495.71,0
300,-300,-558.7,0
300,-300,-664.49,0
300,-300,-810.92,0
300,-300,-988.46,0
300,-300,-1188.8,0
300,-300,-1396.11,0
300,-300,-1595.95,0
300,-300,-1777.88,0
300,-300,-1932.42,0
300,-300,-2055.21,0
300,-300,-2142.97,0
300,-300,-2197.31,0
300,-300,-2222.53,0
300,-300,-2222.91,0
300,-300,-2200.38,0
300,-300,-2160.42,0
300,-300,-2104.54,0
300,-300,-2032.39,0
300,-300,-1943.04,0
300,-300,-1834.73,0
300,-300,-1707.34,0
300,-300,-1550.82,0
300,-300,-1384.01,0
300,-300,-1211.11,0
300,-300,-1042.48,0
300,-300,-894.38,0
300,-300,-781.1,0
300,-300,-714.41,0
300,-300,-703.2,0
300,-300,-752.98,0
300,-300,-861.33,0
300,-300,-1020.26,0
300,-300,-1213.25,0
300,-300,-1421.97,0
300,-300,-1618.06,0
300,-300,-1781.84,0
300,-300,-1891.95,0
300,-300,-1932.75,0
300,-300,-1894.14,0
300,-300,-1775.93,0
300,-300,-1583.73,0
300,-300,-1332.15,0
300,-300,-1040.52,0
300,-300,-729.95,0
300,-300,-424.33,0
300,-300,-144.47,0
300,-300,94.67,0
300,-300,282.76,0
300,-300,418.03,0
300,-300,502.64,0
300,-300,544.06,0
300,-300,548.66,0
300,-300,526.28,0
300,-300,486.09,0
300,-300,429.86,0
300,-300,357.73,0
300,-300,267.96,0
300,-300,154.69,0
300,-300,12.8,0
300,-300,-162.64,0
300,-300,-374.67,0
300,-300,-622.07,0
300,-300,-900.47,0
300,-300,-1200.96,0
300,-300,-1511.75,0
300,-300,-1819.8,0
300,-300,-2112.01,0
300,-300,-2377.52,0
300,-300,-2609.22,0
300,-300,-2803.81,0
300,-300,-2962.32,0
300,-300,-3089.54,0
300,-300,-3192.41,0
300,-300,-3277.68,0
300,-300,-3351.76,0
300,-300,-3417.4,0
300,-300,-3473.11,0
300,-300,-3514.61,0
300,-300,-3534.87,0
300,-300,-3525.65,0
300,-300,-3478.63,0
300,-300,-3371.67,0
300,-300,-3210.06,0
300,-300,-2990.12,0
300,-300,-2719.21,0
300,-300,-2410.82,0
300,-300,-2084.29,0
300,-300,-1761.78,0
300,-300,-1467.22,0
300,-300,-1223.76,0
300,-300,-1057,0
300,-300,-973.98,0
300,-300,-980.62,0
300,-300,-1070.56,0
300,-300,-1231.8,0
300,-300,-1443.19,0
300,-300,-1677.49,0
300,-300,-1905.13,0
300,-300,-2097.12,0
300,-300,-2228.28,0
300,-300,-2283.77,0
300,-300,-2248.52,0
300,-300,-2124,0
300,-300,-1915.9,0
300,-300,-1641.7,0
