Raw_IR
216449
216661
216683
216730
216816
216869
216937
216967
217007
217041
217052
217003
216995
216964
216974
216957
216966
217024
217039
217075
217102
217152
217250
217253
217302
217327
217371
217412
217453
217509
217619
217658
217779
217846
217927
218010
218075
218120
218128
218081
217925
217080
216762
216461
216213
216027
215879
215797
215743
215730
215766
215949
215932
215997
216069
216126
216198
216269
216293
216362
216405
216469
216417
216374
216331
216324
216305
216236
216264
216268
216279
216339
216411
216450
216514
216559
216609
216649
216697
216768
216814
216875
216984
217028
217110
217132
217182
217202
217193
217122
216477
216226
215934
215660
215436
215250
215180
215122
215114
215147
215384
215449
215494
215608
215664
215757
215831
215933
216024
216073
216241
216179
216205
216196
216188
216162
216189
216200
216212
216246
216317
216388
216451
216499
216548
216567
216647
216654
216716
216801
216878
216989
217038
217094
217139
217212
217250
217276
217237
216640
216381
216069
215793
215531
215337
215220
215124
215099
215125
215329
215368
215436
215551
215660
215769
215867
215962
216056
216122
216261
216205
216182
216173
216143
216144
216135
216140
216139
216168
216305
216376
216438
216491
216549
216633
216714
216783
216870
216935
217100
217248
217318
217380
217458
217520
217585
217640
217683
217288
217084
216775
216488
216201
215978
215797
215671
215615
215608
215824
215923
216022
216149
216249
216381
216486
216593
216705
216773
216898
216894
216880
216873
216854
216850
216824
216810
216810
216853
216970
216988
217053
217093
217137
217203
217251
217292
217346
217397
217489
217563
217634
217679
217739
217757
217805
217856
217864
217803
217003
216743
216405
216093
215844
215630
215485
215402
215386
215497
215601
215672
215768
215876
215951
216036
216142
216215
216280
216370
216329
216282
216256
216207
216188
216158
216141
216146
216169
216281
216280
216313
216356
216408
216436
216484
216541
216593
216628
216731
216799
216854
216892
216922
217018
217053
217130
217124
217103
216437
216181
215834
215507
215206
214957
214793
214658
214611
214613
214723
214781
214860
214936
215020
215101
215188
215284
215355
215539
215539
215548
215552
215521
215499
215468
215452
215418
215411
215510
215537
215578
215636
215666
215716
215762
215811
215851
215890
216041
216064
216113
216172
216234
216276
216344
216408
216436
216487
216205
216006
215706
215372
215066
214754
214495
214309
214159
214106
214084
214217
214306
214370
214479
214548
214637
214736
214803
215010
215080
215107
215094
215068
215067
215048
215008
214996
214962
215044
215058
215102
215160
215196
215246
215286
215364
215403
215464
215649
215664
215724
215762
215830
215905
215934
216007
216052
216108
216137
216074
215900
215638
215350
215017
214728
214466
214239
214093
213881
213968
214044
214132
214200
214302
214383
214481
214577
214850
214945
215022
215014
215055
215045
215038
215008
214971
214938
215023
215021
215051
215131
215165
215229
215279
215334
215407
215460
215695
215719
215765
215809
215884
215930
216001
216069
216139
216202
216371
216407
216367
216217
215987
215695
215390
215054
214763
214526
214145
214186
214215
214310
214402
214503
214608
214716
214833
214969
215197
215341
215407
215430
215444
215442
215420
215405
215379
215377
215355
215360
215388
215437
215455
215510
215533
215570
215611
215665
215805
215803
215823
215865
215917
215954
215991
216026
216068
216124
216234
216161
216063
215873
215624
215309
214966
214640
214350
214081
213697
213763
213790
213841
213921
213998
214091
214166
214232
214345
214482
214606
214631
214642
214617
214588
214573
214543
214503
214408
214447
214457
214480
214485
214555
214583
214636
214679
214714
214874
214882
214894
214948
214976
215026
215053
215088
215133
215183
215351
215340
215337
215249
215097
214839
214517
214169
213848
213531
212871
212877
212838
212853
212853
212923
212974
213035
213117
213167
213328
213443
213507
213563
213600
213607
213611
213621
213597
213491
213531
213531
213536
213542
213587
213639
213695
213758
213815
214018
214061
214117
214179
214237
214315
214351
214418
214490
214571
214797
214863
214932
214992
215006
214962
214845
214643
214366
214061
213268
213067
212946
212888
212906
212895
212988
213056
213155
213246
213448
213575
213681
213763
213866
213919
213993
214030
214042
214094
213992
214040
214046
214037
214084
214102
214138
214186
214253
214437
214505
214572
214655
214717
214758
214829
214890
214946
215028
215215
215260
215315
215384
215417
215459
215454
215370
215174
214924
213997
213686
213492
213367
213269
213253
213236
213288
213349
213406
213594
213692
213756
213838
213889
213905
213930
213916
213917
213879
213671
213709
213678
213625
213628
213635
213652
213656
213679
213737
213840
213867
213894
213937
213963
213979
214029
214057
214099
214219
214220
214251
214284
214338
214356
214363
214298
214175
213954
213212
212913
212702
212549
212425
212368
212332
212395
212443
212481
212725
212782
212867
212930
213012
213087
213159
213209
213258
213273
213218
213225
213215
213227
213213
213232
213244
213276
213333
213393
213466
213569
213635
213697
213771
213839
213903
213967
214035
214198
214265
214342
214407
214491
214550
214582
214648
214617
214519
213860
213578
213371
213194
213069
212973
212939
212923
212937
213005
213249
213313
213409
213451
213526
213616
213703
213778
213872
213908
214040
214064
214057
214052
214029
214040
214069
214094
214142
214175
214311
214400
214464
214529
214613
214652
214726
214806
214854
214960
215048
215201
215280
215357
215460
215520
215550
215587
215570
215256
215056
214839
214584
214400
214233
214114
214048
214024
214061
214277
214309
214378
214448
214520
214594
214694
214801
214870
214958
215196
215165
215192
215234
215251
215233
215259
215272
215294
215296
215452
215519
215590
215654
215729
215772
215842
215917
215984
216050
216215
216380
216443
216549
216617
216699
216758
216858
216968
217088
216943
216840
216653
216427
216225
216057
215913
215788
215741
215711
215819
215890
216001
216112
216223
216335
216435
216550
216621
216719
216908
216955
217014
217053
217043
217059
217082
217074
217132
217168
217343
217391
217453
217513
217569
217640
217708
217782
217885
217935
218104
218236
218332
218434
218534
218615
218696
218788
218883
218927
218838
218801
218622
218431
218232
218047
217864
217710
217636
217574
217666
217733
217798
217847
217936
217985
218030
218124
218271
218457
218502
218532
218528
218497
218487
218462
218464
218458
218452
218471
218453
218493
218580
218608
218668
218729
218739
218793
218817
218960
218974
219003
219037
219096
219142
219197
219246
219285
219330
219274
219231
219071
218841
218651
218457
218251
218078
217929
217853
217732
217830
217876
217938
217978
218035
218066
218132
218195
218393
218464
218468
218500
218547
218560
218562
218557
218570
218581
218699
218714
218745
218783
218842
218901
218977
219037
219107
219183
219322
219330
219360
219377
219414
219460
219497
219561
219587
219636
219766
219773
219735
219621
219489
219272
219077
218850
218638
218462
218193
218232
218230
218240
218316
218376
218412
218431
218485
218570
218650
218748
218779
218800
218804
218830
218838
218818
218825
218780
218790
218786
218799
218832
218856
218874
218906
218964
218987
219132
219149
219172
219216
219255
219282
219327
219346
219378
219393
219573
219574
219572
219587
219566
219488
219375
219179
218960
218732
218114
218025
217975
217939
217947
217966
217985
218045
218073
218152
218263
218346
218384
218460
218489
218524
218568
218566
218619
218530
218557
218568
218571
218583
218609
218628
218688
218703
218742
218847
218911
218962
219040
219102
219166
219188
219229
219271
219326
219537
219569
219640
219696
219715
219792
219797
219802
219747
219661
219155
218898
218723
218602
218514
218466
218484
218510
218534
218604
218808
218931
218998
219102
219189
219249
219317
219351
219393
219436
219381
219474
219470
219463
219466
219471
219473
219521
219553
219669
219738
219778
219804
219853
219893
219956
220025
220085
220155
220334
220359
220417
220493
220540
220582
220640
220666
220692
220633
220246
220016
219807
219558
219373
219213
219121
219033
219007
218973
219093
219145
219192
219240
219300
219344
219393
219440
219474
219499
219470
219470
219436
219380
219371
219345
219316
219306
219287
219328
219320
219424
219438
219467
219473
219506
219524
219538
219571
219647
219698
219733
219764
219800
219847
219881
219891
219917
219910
219735
219503
219266
219019
218763
218552
218365
218209
218098
218034
218071
218019
218082
218148
218209
218256
218330
218386
218435
218505
218559
218574
218563
218560
218536
218489
218478
218435
218417
218415
218392
218454
218500
218527
218515
218554
218561
218612
218663
218737
218831
218861
218915
218963
219001
219043
219091
219142
219210
219256
219243
219202
219083
218896
218707
218461
218242
218014
217823
217508
217474
217501
217526
217588
217638
217664
217730
217779
217855
218141
218164
218213
218265
218265
218255
218227
218230
218223
218202
218146
218186
218193
218221
218270
218325
218388
218450
218543
218621
218754
218874
218951
219017
219125
219190
219254
219325
219379
219497
219564
219645
219726
219802
219836
219784
219641
219447
219259
218595
218400
218279
218200
218181
218193
218252
218320
218421
218501
218797
218869
218959
219026
219114
219191
219252
219305
219351
219363
219345
219349
219328
219312
219336
219318
219332
219340
219348
219363
219410
219462
219458
219479
219498
219505
219537
219549
219567
219628
219656
219733
219807
219824
219869
219883
219893
219900
219825
219340
219172
218926
218734
218585
218465
218398
218379
218365
218414
218615
218672
218727
218818
218899
218954
219015
219040
219082
219125
219263
219266
219278
219306
219295
219308
219319
219335
219340
219356
219328
219408
219426
219428
219469
219490
219565
219615
219667
219741
219806
219930
219965
220005
220048
220101
220155
220198
220250
219976
219838
219624
219398
219168
218983
218803
218659
218564
218491
218573
218623
218694
218738
218802
218841
218890
218933
218995
219008
219182
219148
219159
219138
219141
219107
219121
219093
219072
219071
219135
219176
219224
219251
219294
219318
219358
219390
219408
219447
219500
219585
219605
219663
219703
219733
219793
219827
219899
219972
219924
219919
219807
219620
219470
219270
219100
218921
218791
218478
218461
218482
218517
218559
218617
218696
218759
218835
218949
219243
219282
219356
219405
219416
219430
219405
219416
219416
219424
219500
219446
219447
219459
219509
219559
219599
219657
219699
219724
219838
219944
219978
220051
220088
220155
220182
220230
220264
220342
220434
220539
220588
220586
220541
220428
220281
220107
219951
219496
219471
219425
219428
219438
219493
219583
219657
219777
219913
220234
220292
220357
220408
220465
220519
220563
220603
220615
220648
220655
220634
220637
220682
220716
220736
220778
220808
220855
220909
221056
221058
221120
221178
221243
221306
221350
221413
221444
221512
221642
221754
221823
221864
221900
221892
221817
221695
221554
221424
220850
220833
220697
220653
220651
220679
220721
220782
220845
221076
221161
221243
221315
221387
221442
221486
221522
221547
221527
221509
221455
221442
221422
221439
221438
221465
221467
221466
221470
221558
221540
221556
221573
221584
221600
221592
221603
221618
221647
221722
221758
221743
221755
221718
221661
221579
221440
221260
221055
220379
220255
220120
220014
219934
219903
219897
219906
219924
219981
220019
220148
220198
220269
220305
220361
220353
220360
220342
220275
220260
220244
220224
220206
220214
220244
220297
220339
220383
220592
220612
220666
220698
220761
220829
220884
220936
220981
221065
221264
221263
221287
221334
221378
221445
221431
221395
221303
221140
220524
220379
220209
220081
219979
219937
219898
219907
219928
219971
220019
220171
220233
220294
220338
220426
220486
220573
220604
220599
220640
220613
220609
220570
220568
220555
220527
220533
220597
220672
220703
220721
220758
220759
220796
220794
220815
220859
220879
221002
221023
221055
221101
221145
221170
221207
221232
221213
221163
220704
220477
220224
220042
219860
219719
219635
219596
219579
219568
219571
219645
219647
219690
219699
219714
219723
219715
219715
219724
219490
219503
219437
219342
219282
219214
219122
219112
219068
219024
219031
219042
219034
219028
219011
218974
218955
218953
218950
219016
218980
219010
219026
219029
219049
219064
219060
219077
219003
218546
218297
218056
217891
217748
217586
217525
217484
217496
217504
217616
217653
217732
217799
217828
217901
217968
218001
218036
218080
218087
218115
218088
218074
218054
218018
218020
218022
218043
218103
218089
218191
218229
218266
218305
218348
218359
218400
218445
218503
218552
218602
218644
218699
218725
218775
218807
218828
218855
218718
218576
218370
218177
217964
217766
217620
217513
217440
217422
217564
217588
217657
217722
217785
217894
217959
218055
218160
218199
218353
218411
218432
218452
218439
218433
218434
218414
218432
218437
218517
218592
218648
218728
218760
218811
218839
218893
218970
219032
219128
219226
219270
219345
219411
219468
219508
219581
219660
219731
219716
219609
219439
219262
219035
218789
218594
218434
218314
218271
218251
218335
218396
218439
218502
218555
218642
218721
218797
218981
218969
218948
218931
218919
218900
218888
218848
218839
218788
218799
218824
218870
218911
218929
218960
219006
219043
219074
219098
219121
219222
219248
219282
219350
219383
219451
219502
219525
219593
219619
219635
219520
219371
219166
218935
218697
218483
218273
218007
218028
218043
218103
218172
218260
218286
218374
218463
218534
218781
218801
218836
218876
218895
218886
218914
218888
218886
218902
218906
218893
218893
218945
218992
218997
219057
219082
219123
219167
219227
219310
219364
219418
219442
219491
219526
219593
219639
219678
219745
219844
219873
219840
219752
219636
219454
219228
218980
218775
218170
218098
218047
218062
218081
218120
218197
218268
218324
218367
218607
218669
218735
218781
218845
218882
218901
218877
218871
218845
218814
218788
218794
218818
218857
218882
218906
218946
218994
219040
219213
219204
219238
219264
219313
219354
219388
219416
219489
219545
219631
219743
219777
219821
219858
219864
219797
219662
219499
219307
218514
218418
218293
218194
218134
218136
218154
218214
218246
218410
218515
218582
218665
218748
218822
218907
218967
219011
219017
219066
219021
219015
219005
219022
219015
219055
219090
219143
219177
219419
219443
219509
219589
219667
219716
219758
219843
219885
219950
220136
220207
220273
220338
220413
220456
220524
220582
220570
220556
220037
219858
219618
219392
219196
219073
218967
218946
218956
219005
219130
219273
219318
219390
219477
219536
219611
219707
219760
219879
219933
219906
219912
219898
219876
219849
219818
219850
219849
219957
219963
220015
220072
220107
220150
220193
220215
220246
220285
220425
220413
220464
220506
220545
220606
220634
220650
220687
220694
220416
220203
219966
219734
219495
219258
219080
218936
218863
218820
218886
218987
219036
219117
219187
219248
219288
219352
219390
219440
219401
219439
219402
219377
219342
219284
219251
219234
219229
219226
219241
219282
219313
219358
219400
219444
219483
219507
219552
219723
219702
219732
219747
219783
219810
219843
219850
219852
219887
219818
219622
219434
219179
218911
218664
218406
218196
218043
217916
217828
217892
217948
217994
218058
218112
218185
218245
218294
218351
218394
218457
218442
218436
218391
218379
218364
218312
218285
218314
218235
218301
218335
218369
218398
218429
218441
218483
218489
218528
218607
218657
218661
218718
218722
218756
218779
218808
218858
218901
218994
218909
218757
218574
218336
218056
217825
217555
217364
217204
217059
217045
217068
217129
217176
217256
217316
217364
217416
217489
217625
217724
217770
217770
217746
217756
217719
217702
217687
217706
217619
217705
217734
217750
217801
217845
217912
217946
218029
218181
218264
218312
218389
218459
218510
218602
218658
218742
218812
219054
219069
219034
218994
218849
218684
218466
218256
218059
217864
217502
217407
217418
217417
217446
217496
217530
217577
217622
217654
217820
217867
217907
217942
217924
217928
217906
217902
217852
217848
217694
217714
217699
217706
217705
217747
217730
217761
217782
217848
217818
217909
217928
217966
217963
218015
218030
218064
218110
218126
218230
218214
218149
218007
217842
217626
217442
217274
217113
217010
216916
216909
216973
217020
217096
217158
217202
217274
217327
217358
217482
217436
217408
217401
217339
217329
217261
217232
217178
217121
217060
217086
217114
217130
217144
217173
217176
217201
217212
217228
217218
217322
217337
217388
217418
217450
217496
217527
217580
217593
217557
217411
217251
217057
216840
216624
216433
216290
216178
216149
216173
216210
216263
216338
216368
216439
216513
216579
216626
216823
216813
216824
216832
216820
216825
216791
216791
216773
216762
216847
216861
216903
216945
216980
217034
217082
217126
217172
217212
217267
217356
217378
217421
217465
217522
217560
217623
217678
217744
217579
217497
217312
217093
216873
216675
216478
216347
216253
216187
216236
216281
216326
216384
216449
216493
216543
216640
216707
216896
216909
216945
216972
216957
216964
216976
216935
216965
216965
217053
217048
217074
217122
217151
217191
217230
217276
217309
217364
217445
217507
217556
217595
217644
217667
217731
217779
217808
217868
217625
217524
217337
217144
216905
216747
216571
216464
216370
216316
216411
216467
216543
216605
216664
216699
216780
216853
216929
217115
217161
217187
217180
217197
217163
217155
217165
217148
217137
217197
217186
217214
217257
217310
217356
217396
217423
217455
217512
217693
217718
217764
217824
217885
217938
217993
218021
218058
218116
217864
217729
217554
217332
217168
217014
216918
216865
216845
216859
216958
217126
217181
217264
217324
217419
217500
217585
217651
217767
217827
217820
217816
217820
217827
217825
217803
217837
217871
217991
217994
218035
218085
218132
218183
218232
218280
218316
218376
218558
218610
218674
218745
218811
218885
218929
218972
218944
218905
218512
218278
218089
217930
217798
217735
217701
217695
217750
217806
217970
218077
218162
218241
218319
218383
218456
218533
218559
218581
218506
218565
218544
218577
218552
218554
218592
218608
218635
218683
218745
218784
218806
218825
218842
218871
218894
218933
218944
219067
219093
219127
219128
219161
219146
219106
219009
218889
218681
218135
217957
217853
217776
217754
217747
217747
217787
217868
217900
218069
218095
218147
218219
218274
218312
218348
218354
218368
218375
218303
218363
218367
218379
218396
218419
218464
218476
218539
218584
218650
218767
218789
218827
218893
218931
218956
219001
219046
219144
219215
219252
219262
219307
219302
219215
219133
218983
218821
218353
218241
218173
218126
218138
218166
218218
218261
218330
218380
218562
218598
218650
218707
218752
218785
218814
218846
218871
218892
218940
218907
218915
218922
218935
218982
219013
219067
219086
219117
219201
219284
219329
219381
219418
219479
219508
219543
219561
219612
219645
219772
219789
219801
219803
219752
219664
219540
219341
218867
218769
218695
218653
218644
218647
218680
218740
218798
218851
219030
219041
219082
219146
219193
219228
219281
219304
219295
219299
219315
219267
219275
219292
219292
219308
219348
219392
219435
219465
219620
219673
219725
219767
219803
219846
219869
219905
219967
220027
220179
220293
220353
220398
220409
220395
220342
220227
220104
219975
219477
219405
219378
219357
219360
219395
219477
219549
219634
219840
219900
219964
220052
220115
220188
220220
220263
220266
220277
220280
220267
220263
220287
220325
220344
220365
220405
220441
220476
220651
220646
220706
220765
220810
220846
220877
220917
220959
221001
221081
221175
221202
221235
221245
221248
221177
221082
220947
220784
220202
220137
220032
219987
219977
219976
220005
220047
220117
220219
220340
220381
220445
220482
220508
220531
220528
220519
220497
220412
220366
220377
220363
220349
220350
220375
220371
220368
220411
220477
220475
220471
220486
220509
220504
220528
220556
220579
220607
220698
220670
220689
220705
220716
220675
220617
220489
220338
220152
219565
219454
219351
219284
219261
219225
219258
219283
219352
219414
219471
219595
219658
219709
219745
219770
219777
219796
219813
219697
219721
219701
219690
219675
219673
219706
219733
219767
219809
219934
219923
219940
219984
220003
220050
220076
220102
220107
220143
220287
220269
220319
220356
220386
220421
220434
220364
220274
220152
219629
219420
219273
219132
219060
219003
218982
218998
219025
219060
219172
219282
219331
219368
219438
219464
219525
219558
219583
219617
219489
219511
219494
219495
219496
219510
219505
219536
219573
219621
219697
219735
219758
219775
219829
219855
219869
219922
219944
220056
220039
220081
220136
220163
220207
220238
220247
220248
220223
219835
219615
219406
219219
219057
218913
218816
218779
218763
218793
218945
219029
219093
219147
219221
219266
219311
219390
219432
219474
219478
219548
219521
219516
219517
219535
219547
219546
219568
219637
219698
219816
219872
219920
219976
220041
220084
220104
220175
220288
220368
220424
220479
220547
220603
220659
220713
220759
220817
220838
220721
220543
220387
220165
219972
219784
219630
219510
219416
219472
219514
219590
219678
219742
219833
219898
219973
220061
220119
220308
220297
220288
220268
220289
220275
220251
220260
220268
220262
220297
220354
220385
220428
220461
220508
220544
220569
220605
220640
220686
220778
220823
220874
220921
220949
220964
221015
221047
221109
221017
220957
220818
220635
220396
220158
219938
219736
219588
219405
219423
219485
219505
219585
219623
219694
219751
219824
219875
219996
219994
219996
219986
219970
219949
219910
219885
219862
219826
219841
219802
219847
219858
219888
219876
219910
219912
219951
219953
220075
220054
220081
220122
220139
220144
220216
220220
220261
220294
220314
220304
220208
220005
219814
219563
219325
219093
218898
218727
218437
218466
218476
218520
218569
218639
218701
218755
218793
218865
218946
219030
219056
219063
219076
219053
219024
219002
218971
218921
218962
218960
218977
219011
219026
219048
219089
219106
219174
219242
219285
219311
219344
219360
219408
219449
219490
219533
219564
219696
219702
219710
219647
219555
219364
219161
218925
218676
218456
218099
217989
217975
217968
217981
218037
218094
218160
218205
218269
218425
218478
218528
218563
218609
218644
218688
218685
218651
218651
218531
218548
218576
218588
218599
218665
218707
218752
218774
218824
218862
218977
219027
219059
219087
219128
219152
219192
219238
219371
219464
219511
219534
219530
219477
219347
219206
219014
218804
218184
218041
217961
217930
217908
217934
217980
218055
218136
218186
218436
218496
218563
218658
218698
218761
218830
218852
218876
218885
218942
218912
218894
218923
218960
218968
219049
219105
219142
219215
219454
219467
219539
219585
219646
219720
219778
219845
219913
219995
220169
220277
220359
220444
220524
220563
220550
220475
220346
220177
219492
219413
219302
219218
219189
219186
219196
219247
219331
219444
219643
219784
219855
219916
219984
220077
220144
220176
220198
220218
220172
220174
220136
220155
220161
220207
220236
220265
220304
220345
220506
220520
220553
220619
220630
220654
220694
220727
220761
220833
221015
221012
221049
221107
221121
221127
221056
220927
220756
220566
219946
219730
219591
219505
219466
219485
219512
219575
219612
219688
219824
219944
219982
220028
220070
220105
220100
220110
220084
220070
219939
219970
219938
219942
219942
219942
219970
219960
219988
220037
220032
220130
220155
220201
220212
220251
220261
220282
220311
220395
220451
220495
220519
220554
220556
220549
220464
220328
220131
219452
219233
219071
218938
218854
218829
218820
218809
218868
218925
219072
219092
219165
219211
219272
219341
219377
219403
219419
219435
219453
219397
219364
219350
219353
219362
219371
219414
219430
219470
219541
219572
219621
219649
219687
219698
219727
219793
219833
219867
219956
220043
220073
220134
220146
220190
220191
220141
220032
219896
219200
219081
218870
218725
218613
218558
218543
218538
218591
218697
218769
218852
218903
218954
219031
219085
219138
219164
219190
219178
219187
219173
219182
219150
219136
219148
219140
219157
219182
219292
219324
219372
219399
219429
219470
219494
219562
219564
219611
219798
219817
219844
219907
219938
219991
220014
220037
220015
219946
219481
219258
219044
218862
218707
218594
218535
218506
218522
218564
218726
218822
218884
218986
219072
219162
219255
219296
219378
219443
219438
219544
219544
219547
219571
219561
219567
219613
219621
219708
219792
219878
219934
219987
220031
220105
220163
220210
220277
220415
220504
220573
220620
220701
220770
220823
220870
220928
220949
220694
220444
220219
219982
219751
219582
219419
219327
219291
219301
219489
219526
219612
219705
219772
219886
219974
220039
220120
220185
220255
220219
220179
220183
220156
220135
220118
220084
220115
220126
220182
220228
220292
220312
220344
220364
220403
220398
220449
220483
220529
220610
220631
220667
220691
220739
220761
220777
220768
220704
220071
219859
219578
219329
219101
218932
218821
218757
218699
218725
218812
218865
218890
218966
219033
219108
219156
219169
219214
219224
219165
219158
219115
219085
219056
219046
219031
219030
219051
219137
219158
219179
219190
219250
219269
219297
219329
219344
219369
219535
219540
219590
219626
219674
219730
219782
219807
219815
219808
219278
219025
218774
218501
218262
218093
217958
217844
217819
217809
217876
217969
218015
218065
218100
218148
218224
218298
218319
218409
218369
218463
218428
218395
218412
218400
218380
218340
218351
218409
218454
218479
218534
218582
218608
218650
218697
218777
218793
218932
218976
219009
219028
219139
219181
219241
219269
219301
219300
218918
218653
218434
218180
217948
217753
217594
217473
217421
217411
217537
217569
217634
217680
217727
217780
217853
217918
218005
218037
218152
218124
218128
218089
218085
218055
218055
218076
218093
218095
218159
218242
218292
218348
218412
218470
218507
218558
218610
218691
218770
218923
218987
219060
219135
219179
219266
219324
219346
219117
218962
218724
218491
218242
218018
217855
217753
217685
217693
217832
217901
217964
218074
218181
218252
218359
218434
218538
218609
218806
218794
218815
218811
218845
218829
218828
218832
218846
218889
219080
219127
219190
219246
219308
219354
219419
219479
219539
219606
219834
219880
219955
220012
220086
220175
220234
220311
220322
220325
219807
219563
219301
219034
218816
218609
218483
218375
218362
218387
218452
218592
218663
218739
218805
218884
218939
218994
219017
219072
218918
218923
218888
218822
218794
218741
218731
218722
218700
218683
218713
218718
218725
218723
218753
218769
218762
218793
218800
218854
218910
218930
218967
218991
219027
219039
219048
219034
218906
218304
217993
217712
217459
217225
217067
216971
216900
216883
216874
217036
217040
217100
217169
217210
217277
217364
217420
217460
217485
217519
217477
217439
217450
217429
217384
217398
217400
217406
217436
217501
217564
217603
217667
217692
217736
217770
217785
217824
217877
217954
218086
218120
218144
218200
218243
218266
218282
218235
218141
217375
217153
216933
216738
216564
216463
216425
216402
216417
216529
216595
216663
216714
216774
216875
216933
216994
217055
217092
217178
217169
217144
217123
217119
217100
217102
217119
217164
217167
217326
217340
217407
217427
217475
217538
217596
217654
217707
217755
217939
217966
218030
218098
218173
218258
218280
218332
218339
218290
217765
217537
217295
217066
216869
216732
216664
216630
216644
216696
216881
217043
217119
217193
217297
217398
217474
217566
217645
217719
217780
217881
217880
217718
217728
217790
217849
217839
217809
217942
218043
218097
218141
218205
218308
218396
218469
218528
218581
218725
218825
218913
218983
219062
219136
219176
219221
219252
219211
218788
218486
218229
217963
217740
217561
217458
217400
217377
217417
217657
217711
217792
217878
217996
218109
218174
218265
218337
218412
218452
218378
218361
218334
218320
218272
218270
218288
218316
218315
218428
218471
218520
218566
218608
218680
218749
218849
218937
219002
219191
219293
219303
219349
219337
219351
219293
219216
219068
218898
217941
217776
217553
217380
217240
217134
217083
217074
217074
217148
217216
217270
217311
217320
217330
217350
217323
217326
217333
217211
217177
217139
217118
217106
217094
217109
217127
217156
217196
217380
217406
217464
217509
217586
217674
217737
217810
217903
217962
218241
218294
218366
218459
218558
218620
218682
218728
218692
218582
217851
217514
217252
217026
216861
216735
216686
216676
216700
216722
216930
217064
217144
217223
217328
217410
217485
217595
217665
217700
217692
217735
217721
217728
217713
217730
217763
217798
217819
217904
217963
218081
218110
218168
218201
218272
218312
218353
218408
218583
218644
218711
218751
218796
218830
218856
218825
218722
218539
217647
217307
216997
216722
216519
216391
216308
216310
216327
216403
216767
216874
217020
217183
217316
217430
217479
217544
217594
217634
217711
217643
217612
217597
217549
217552
217542
217562
217573
217628
217700
217778
217840
217891
217920
217969
217993
218023
218037
218064
218115
218192
218208
218240
218251
218213
218160
217993
217740
217476
216387
216187
215943
215783
215698
215650
215656
215666
215727
215856
215973
216001
216091
216154
216206
216257
216289
216285
216300
216264
216256
216237
216201
216201
216202
216244
216269
216304
216337
216522
216572
216607
216691
216752
216795
216846
216895
216947
217005
217177
217162
217212
217256
217283
217312
217315
217239
217088
216881
216094
215850
215669
215550
215464
215434
215460
215485
215546
215639
215862
215982
216085
216191
216281
216362
216429
216490
216539
216559
216450
216491
216496
216473
216485
216504
216536
216578
216640
216769
216905
216930
216996
217046
217055
217086
217122
217098
217105
217085
217094
217114
217115
217143
217118
217105
217033
216885
216661
215881
215600
215383
215246
215154
215133
215129
215218
215300
215396
215727
215807
215951
216075
216195
216288
216355
216376
216394
216354
216280
216219
216171
216171
216136
216157
216163
216212
216248
216303
216450
216556
216616
216662
216719
216751
216820
216835
216884
216923
216991
217104
217153
217224
217262
217332
217305
217230
217047
216817
215733
215452
215208
215023
214888
214830
214805
214849
214869
215085
215188
215264
215338
215430
215517
215586
215661
215720
215749
215822
215774
215768
215750
215726
215735
215752
215746
215777
215813
215990
216037
216074
216121
216165
216224
216284
216348
216391
216451
216604
216634
216684
216742
216781
216861
216901
216913
216827
216677
215773
215501
215185
214959
214740
214619
214560
214548
214561
214629
214772
214888
214975
215061
215151
215236
215307
215380
215398
215478
215331
215376
215316
215298
215282
215271
215271
215306
215349
215480
215542
215615
215680
215718
215761
215813
215836
215872
215877
216034
216082
216142
216213
216266
216315
216393
216441
216464
216386
215762
215389
215043
214751
214459
214268
214096
214006
213982
213991
214222
214225
214317
214392
214472
214556
214637
214710
214771
214830
214854
214866
214862
214856
214831
214798
214830
214862
214892
214928
215020
215097
215152
215206
215262
215295
215358
215408
215425
215497
215496
215641
215679
215713
215760
215826
215858
215881
215915
215724
215549
215285
214962
214664
214385
214126
213949
213813
213736
213758
213843
213925
214027
214119
214195
214296
214402
214477
214596
214799
214778
214767
214752
214773
214740
214745
214703
214726
214764
214926
214933
215005
215077
215130
215183
215228
215319
215394
215435
215648
215680
215744
215827
215906
215987
216078
216160
216255
216296
216353
216278
216091
215820
215530
215231
214977
214752
214570
214471
214428
214597
214700
214829
214975
215101
215237
215388
215547
215707
215918
216044
216035
216069
216071
216061
216042
216069
216056
216095
216163
216215
216301
216357
216446
216513
216589
216685
216785
217034
217112
217194
217280
217370
217470
217532
217623
217681
217747
217818
217657
217445
217128
216777
216354
215981
215643
215366
215146
214991
214979
215057
215131
215240
215360
215475
215607
215733
215839
216072
216098
216105
216080
216055
215994
215977
215908
215868
215838
215770
215832
215863
215884
215941
216006
216048
216080
216119
216147
216208
216323
216359
216391
216430
216457
216502
216555
216620
216662
216696
216557
216316
215997
215617
215195
214777
214438
214098
213579
213549
213566
213606
213688
213797
213913
214043
214181
214336
214753
214796
214851
214863
214864
214822
214777
214715
214639
214638
214668
214635
214669
214684
214733
214773
214852
214919
214968
215027
215185
215191
215167
215171
215156
215145
215157
215163
215174
215181
215276
215367
215359
215269
215080
214828
214505
214187
213909
213670
213114
213130
213153
213181
213252
213351
213429
213555
213640
213796
213995
214141
214201
214252
214317
214355
214343
214340
214315
214356
214361
214416
214435
214464
214533
214569
214614
214651
214681
214770
214777
214820
214857
214902
214948
214979
215018
215067
215159
215416
215468
215525
215524
215461
215313
215060
214777
214442
214142
213473
213318
213250
213230
213292
213344
213438
213518
213610
213724
214050
214187
214294
214368
214431
214473
214494
214493
214509
214504
214407
214474
214498
214519
214572
214642
214745
214807
214847
214955
215074
215202
215272
215333
215389
215421
215515
215577
215670
215868
215988
216058
216084
216045
215930
215714
215438
215094
214757
213914
213757
213662
213607
213618
213666
213734
213798
213884
213992
214272
214337
214391
214472
214484
214482
214474
214418
214400
214339
214219
214120
214115
214064
214057
214065
214080
214090
214101
214145
214208
214250
214302
214322
214332
214377
214368
214413
214458
214490
214608
214668
214666
214578
214403
214172
213849
213508
213185
212901
212187
212205
212174
212171
212237
212278
212352
212418
212497
212724
212841
212909
212986
213028
213070
213087
213097
213069
213075
212976
212977
212993
213011
213047
213099
213138
213195
213263
213302
213510
213563
213624
213686
213744
213800
213873
213942
214022
214085
214336
214357
214418
214404
214319
214130
213866
213545
213182
212880
212242
212080
212034
212049
212112
212165
212236
212318
212381
212460
212696
212829
212913
212990
213044
213092
213127
213137
213134
213140
213005
213056
213076
213094
213120
213181
213215
213250
213331
213485
213579
213650
213717
213787
213850
213901
213990
214011
214101
214307
214409
214455
214510
214501
214415
214261
213970
213638
213309
212543
212345
212245
212220
212235
212289
212361
212437
212536
212620
212974
213065
213162
213236
213311
213392
213434
213456
213474
213483
213405
213466
213448
213493
213536
213572
213634
213713
213771
213840
213985
214133
214188
214276
214350
214408
214463
214553
214628
214730
214913
215053
215107
215176
215138
215040
214867
214608
214307
213993
213219
213070
212988
212979
213007
213061
213170
213254
213353
213476
213833
213901
214031
214125
214220
214280
214333
214333
214346
214344
214287
214233
214225
214218
214224
214259
214298
214351
214394
214468
214549
214639
214694
214722
214769
214834
214892
214960
215002
215077
215184
215274
215301
215260
215132
214923
214661
214301
213955
213666
212910
212863
212790
212796
212836
212890
212967
213042
213108
213210
213514
213595
213661
213714
213750
213771
213769
213762
213737
213719
213694
213676
213680
213672
213748
213813
213842
213860
213902
213974
214262
214274
214326
214364
214451
214494
214530
214608
214671
214750
214877
214962
214982
214935
214764
214568
214243
213944
213645
213328
212609
212616
212598
212598
212631
212714
212783
212846
212927
213170
213314
213423
213526
213609
213663
213729
213733
213730
213706
213730
213704
213708
213740
213749
213763
213825
213878
213920
214008
214208
214257
214306
214347
214426
214474
214531
214589
214675
214712
214899
214942
214999
214998
214988
214908
214726
214447
214160
213834
213029
212933
212833
212814
212815
212844
212903
212952
213008
213106
213277
213434
213532
213611
213687
213765
213825
213851
213884
213836
213873
213830
213839
213872
213878
213920
213988
214055
214129
214408
214461
214568
214650
214718
214792
214853
214902
214981
215038
215270
215329
215404
215494
215563
215613
215600
215490
215321
215048
214139
213893
213653
213505
213429
213397
213411
213466
213552
213621
213888
214007
214126
214211
214311
214416
214484
214551
214596
214635
214560
214633
214615
214656
214639
214663
214715
214773
214820
214955
215056
215138
215204
215274
215357
215428
215525
215608
215707
215943
215996
216096
216148
216193
216266
216261
216232
216127
215862
214928
214596
214346
214134
213967
213915
213861
213856
213911
213960
214224
214285
214382
214475
214560
214635
214688
214718
214727
214723
214592
214571
214549
214506
214467
214472
214473
214484
214524
214579
214606
214730
214781
214825
214863
214898
214914
214963
214982
215059
215124
215159
215204
215249
215299
215325
215332
215249
215096
214267
213927
213634
213404
213219
213087
213016
213020
213052
213096
213336
213386
213472
213552
213632
213747
213839
213931
213986
214015
214115
214086
214080
214070
214039
214046
214052
214070
214080
214120
214228
214307
214388
214446
214511
214554
214613
214662
214703
214796
214833
214985
215027
215091
215158
215192
215262
215275
215279
214828
214563
214250
213922
213646
213420
213229
213108
213056
213028
213190
213201
213280
213359
213410
213494
213581
213651
213737
213811
213999
213959
213973
213967
213953
213919
213937
213918
213924
213958
214087
214111
214190
214226
214310
214364
214413
214505
214559
214631
214779
214886
214945
215016
215113
215169
215265
215308
215385
215482
215355
215244
215000
214702
214401
214117
213874
213698
213571
213484
213574
213649
213737
213854
213952
214019
214147
214230
214335
214646
214671
214714
214743
214756
214767
214740
214749
214754
214734
214840
214844
214889
214936
215004
215062
215112
215180
215248
215303
215544
215572
215638
215714
215768
215849
215935
215982
216079
216151
216250
216260
216165
215968
215716
215387
215049
214732
214489
214281
213957
214045
214082
214159
214201
214283
214356
214438
214516
214734
214834
214867
214914
214934
214913
214892
214893
214893
214844
214853
214838
214851
214891
214926
214963
215031
215073
215112
215161
215315
215335
215380
215411
215471
215503
215522
215564
215620
215669
215813
215863
215857
215798
215634
215384
215093
214775
214452
214150
213568
213537
213519
213549
213566
213665
213757
213776
213851
213950
214125
214251
214326
214384
214437
214434
214485
214485
214453
214353
214399
214382
214388
214408
214424
214483
214513
214584
214621
214830
214850
214916
214945
215025
215048
215120
215159
215227
215300
215562
215565
215645
215712
215783
215787
215714
215583
215344
215061
214272
214065
213919
213859
213842
213888
213966
214077
214168
214261
214562
214733
214837
214925
215040
215124
215244
215325
215387
215474
215493
215578
215604
215651
215717
215774
215845
215942
216025
216209
216286
216326
216426
216491
216561
216621
216716
216746
216824
217043
217087
217157
217241
217338
217410
217467
217498
217438
217293
216512
216128
215830
215575
215359
215220
215110
215112
215129
215161
215314
215436
215492
215592
215715
215786
215895
215948
216036
216040
215823
215772
215698
215589
215536
215497
215486
215447
215437
215504
215432
215520
215559
215566
215596
215622
215614
215626
215647
215680
215858
215949
215958
216007
216013
216044
216046
215995
215876
215665
214777
214414
214138
213925
213756
213645
213588
213560
213579
213621
213816
213848
213918
214015
214100
214175
214274
214324
214389
214423
214396
214444
214428
214400
214403
214431
214436
214471
214518
214564
214647
214785
214806
214875
214930
214972
215001
215064
215090
215164
215218
215254
215337
215386
215420
215490
215534
215517
215413
214640
214317
214005
213744
213534
213358
213255
213191
213174
213205
213455
213492
213593
213675
213760
213866
213980
214042
214047
214080
214240
214224
214198
214212
214208
214234
214209
214232
214274
214349
214462
214563
214608
214668
214730
214763
214857
214948
215035
215138
215306
215439
215517
215619
215700
215767
215803
215843
215812
215212
214907
214573
214240
213915
213655
213446
213307
213219
213189
213312
213353
213418
213506
213594
213674
213768
213857
213949
214056
214279
214278
214279
214298
214290
214285
214297
214308
214320
214335
214483
214550
214594
214673
214715
214816
214879
214948
215007
215110
215288
215409
215498
215572
215633
215756
215851
215931
216026
216139
215906
215771
215505
215219
214899
214663
214471
214341
214247
214271
214392
214523
214643
214773
214890
215036
215193
215305
215418
215703
215728
215748
215722
215735
215701
215662
215631
215636
215624
215707
215724
215761
215790
215825
215883
215931
215992
216038
216075
216151
216189
216221
216260
216288
216311
216367
216381
216414
216441
216198
215974
215680
215374
215064
214814
214603
214450
214384
214352
214432
214579
214681
214790
214892
215007
215129
215240
215347
215548
215596
215611
215597
215610
215588
215576
215564
215585
215591
215729
215766
215828
215881
215957
216027
216081
216147
216214
216259
216496
216499
216559
216618
216656
216745
216817
216895
216945
217008
217022
216876
216646
216353
216051
215784
215505
215279
215124
215030
214950
215080
215173
215234
215322
215438
215526
215625
215721
215848
216030
216137
216175
216192
216206
216217
216199
216209
216169
216186
216224
216289
216330
216404
216458
216531
216589
216643
216710
216768
216992
217021
217085
217162
217220
217313
217378
217449
217521
217582
217723
217589
217424
217187
216907
216596
216303
216074
215869
215722
215554
215648
215716
215822
215883
215994
216081
216164
216272
216368
216603
216730
216778
216803
216832
216838
216835
216826
216805
216851
216828
216917
216980
217031
217089
217143
217223
217306
217351
217446
217656
217721
217819
217873
217939
218013
218092
218160
218249
218338
218546
218518
218396
218167
217903
217602
217287
217021
216771
216590
216446
216422
216500
216601
216687
216773
216911
217021
217139
217274
217567
217648
217727
217749
217779
217777
217759
217730
217740
217736
217680
217777
217794
217861
217910
217957
218025
218069
218146
218240
218321
218392
218434
218500
218540
218627
218681
218756
218800
218887
218953
218906
218740
218521
218233
217941
217606
217350
217140
216969
216852
216858
216908
216990
217071
217165
217253
217359
217467
217553
217784
217761
217759
217776
217731
217665
217635
217581
217537
217512
217433
217498
217497
217522
217557
217581
217597
217608
217625
217658
217646
217698
217718
217744
217758
217769
217816
217856
217876
217943
217755
217660
217424
217159
216827
216539
216244
215993
215799
215669
215529
215614
215648
215730
215794
215881
215974
216027
216105
216184
216413
216429
216440
216462
216454
216422
216398
216359
216352
216343
216440
216423
216464
216521
216546
216581
216640
216696
216743
216801
216885
216979
217003
217053
217098
217152
217195
217244
217315
217343
217311
217268
217077
216825
216538
216192
215925
215682
215479
215383
215202
215273
215339
215417
215495
215539
215644
215702
215783
215870
216117
216174
216206
216241
216241
216258
216249
216234
216244
216231
216273
216278
216303
216351
216424
216459
216504
216539
216576
216608
216746
216750
216763
216802
216828
216871
216911
216949
217017
217055
217098
217128
217040
216850
216607
216328
215989
215702
215433
215220
214875
214952
214990
215097
215177
215270
215376
215479
215582
215742
215980
216116
216148
216215
216269
216330
216341
216360
216360
216387
216447
216503
216561
216643
216717
216779
216820
216881
216932
216990
217185
217209
217267
217327
217403
217454
217511
217602
217672
217758
218050
218041
218064
218060
217939
217733
217476
217194
216867
216608
216030
215937
215934
215965
216039
216136
216261
216365
216490
216596
216895
217023
217135
217222
217267
217304
217337
217323
217424
217406
217258
217423
217264
217161
217308
217461
217518
217493
217482
217784
217848
217849
217899
217971
218076
218065
218048
218026
218077
218279
218262
218266
218303
218307
218190
217980
217684
217392
217079
216176
215931
215809
215759
215737
215720
215776
215858
215927
216002
216225
216344
216420
216477
216541
216596
216633
216628
216635
216622
216505
216537
216544
216518
216521
216555
216575
216577
216641
216709
216766
216862
216920
216961
217007
217022
217078
217119
217167
217262
217323
217361
217411
217460
217516
217519
217509
217390
217170
216253
215882
215581
215349
215192
215081
215015
215023
215070
215114
215358
215397
215480
215534
215621
215724
215765
215840
215892
215949
215930
215915
215894
215886
215847
215852
215839
215844
215860
215874
215975
216077
216119
216178
216214
216277
216318
216392
216457
216538
216585
216676
216751
216787
216830
216889
216942
216998
217059
216857
216622
216339
215997
215673
215384
215101
214942
214792
214731
214802
214838
214935
215017
215110
215196
215269
215386
215472
215554
215809
215795
215788
215809
215789
215754
215764
215736
215746
215741
215833
215872
215939
215977
216041
216106
216183
216263
216335
216394
216555
216646
216712
216776
216861
216894
216984
217039
217125
217217
217345
217413
217346
217176
216913
216611
216270
215965
215686
215180
215188
215205
215264
215347
215450
215563
215701
215818
215930
216355
216416
216507
216565
216590
216618
216629
216622
216601
216566
216572
216561
216569
216610
216671
216701
216763
216820
216869
216900
217107
217145
217231
217289
217346
217419
217470
217530
217583
217650
217771
217834
217885
217880
217805
217631
217375
217020
216647
216311
215335
215224
215115
215096
215081
215120
215152
215196
215244
215365
215458
215503
215551
215571
215603
215586
215561
215521
215491
215388
215334
215331
215319
215351
215374
215400
215435
215477
215489
215623
215619
215658
215706
215747
215797
215832
215869
215926
215963
216142
216189
216238
216268
216315
216290
216169
215961
215686
215362
214337
214101
213908
213774
213729
213702
213717
213758
213855
213949
214054
214189
214275
214362
214464
214529
214605
214633
214641
214572
214539
214543
214547
214530
214518
214518
214527
214559
214601
214817
214831
214874
214957
214979
215028
215076
215143
215177
215235
215452
215458
215495
215545
215595
215662
215737
215762
215751
215651
214833
214493
214163
213841
213609
213408
213307
213231
213206
213243
213366
213462
213534
213613
213663
213743
213822
213896
213966
214019
213977
213993
213962
213945
213933
213928
213934
213953
213982
214078
214136
214194
214212
214285
214299
214342
214366
214406
214433
214607
214612
214649
214699
214763
214806
214837
214882
214926
214968
214874
214594
214298
213980
213658
213365
213085
212890
212750
212698
212736
212841
212950
213005
213111
213208
213299
213391
213535
213615
213737
213819
213846
213856
213834
213837
213828
213834
213831
213838
213838
213946
213994
214026
214069
214129
214181
214237
214296
214491
214580
214650
214688
214713
214794
214851
214907
214961
215037
215231
215178
215076
214921
214680
214379
214082
213787
213557
213340
213125
213110
213167
213248
213357
213448
213542
213645
213726
213848
214168
214268
214302
214343
214336
214331
214346
214322
214319
214308
214310
214354
214368
214407
214471
214533
214613
214651
214734
214840
214912
214990
215072
215138
215209
215274
215348
215393
215468
215659
215743
215785
215755
215620
215391
215118
214798
214509
214248
213836
213779
213803
213867
213974
214095
214242
214394
214524
214660
215131
215203
215285
215343
215405
215440
215413
215415
215411
215373
215412
215401
215459
215506
215548
215612
215669
215725
215783
215892
216025
216118
216191
216225
216281
216334
216391
216474
216526
216615
216686
216784
216724
216571
216320
216009
215678
215335
215033
214423
214383
214378
214426
214484
214596
214686
214778
214882
214994
215322
215395
215471
215509
215554
215528
215514
215487
215444
215423
215408
215372
215378
215414
215444
215493
215566
215611
215667
215739
215977
215992
216064
216139
216199
216282
216374
216465
216559
216667
216947
217075
217136
217128
216978
216760
216441
216115
215782
215488
214817
214838
214837
214889
214946
215041
215161
215265
215353
215636
215791
215893
215953
216017
216035
216046
216029
216000
215961
215830
215788
215763
215745
215727
215738
215745
215768
215817
215852
215992
216035
216055
216105
216162
216209
216256
216306
216329
216401
216576
216550
216540
216407
216197
215908
215579
215261
214942
214698
214250
214285
214278
214326
214419
214479
214566
214665
214735
214845
215035
215204
215273
215317
215364
215361
215362
215351
215302
215208
215263
215251
215289
215323
215347
215407
215416
215472
215524
215725
215725
215772
215824
215845
215921
215964
216023
216075
216129
216309
216292
216238
216069
215833
215535
215202
214872
214604
214365
214049
214009
214045
214107
214173
214256
214348
214404
214501
214590
214833
214953
215010
215049
215046
215047
215043
215021
215007
215008
214898
214995
215043
215083
215120
215171
215247
215297
215352
215458
215550
215605
215671
215740
215783
215837
215898
215935
215989
216170
216203
216192
216087
215911
215640
215319
215010
214715
214457
214079
214039
214069
214131
214220
214338
214429
214541
214658
214784
215182
215237
215339
215434
215464
215494
215528
215532
215511
215482
215503
215594
215661
215714
215793
215887
215945
216006
216085
216174
216309
216486
216514
216596
216674
216743
216819
216904
217027
217247
217379
217405
217372
217215
217034
216705
216353
216010
215675
215042
214951
214925
214962
214995
215061
215140
215208
215286
215348
215590
215593
215627
215660
215648
215603
215576
215525
215496
215472
215479
215453
215498
215537
215565
215599
215649
215698
215760
215837
215933
216008
216063
216119
216163
216252
216267
216351
216391
216459
216516
216579
216478
216337
216051
215715
215380
215043
214742
214141
214133
214131
214194
214267
214331
214439
214548
214648
214727
215081
215136
215202
215236
215249
215264
215254
215243
215204
215186
215208
215212
215211
215255
215311
215370
215438
215500
215557
215582
215769
215793
215847
215893
215932
215991
215997
216063
216137
216167
216283
216382
216371
216293
216110
215849
215533
215201
214887
214605
213998
214056
214070
214121
214204
214293
214398
214472
214562
214871
215004
215081
215143
215187
215223
215210
215162
215152
215136
215130
215123
215154
215179
215198
215279
215334
215426
215511
215582
215822
215896
215960
216013
216062
216154
216251
216323
216418
216488
216787
216812
216865
216896
216867
216772
216532
216228
215898
215582
214875
214825
214815
214834
214896
215011
215123
215253
215392
215540
215862
216064
216156
216260
216342
216374
216420
216383
216391
216352
216372
216398
216395
216451
216483
216532
216615
216681
216786
216974
217052
217107
217182
217258
217352
217426
217487
217554
217619
217849
217887
217953
217990
217948
217814
217560
217209
216844
216478
215626
215414
215350
215328
215352
215407
215515
215609
215745
215879
216172
216315
216383
216428
216487
216490
216459
216408
216389
216375
216184
216251
216247
216253
216293
216315
216371
216413
216462
216584
216662
216669
216738
216787
216817
216902
216962
216996
217047
217221
217263
217326
217385
217425
217372
217206
216939
216638
216258
215305
215053
214902
214814
214777
214796
214875
214943
215068
215187
215565
215667
215813
215961
216070
216178
216256
216325
216383
216410
216420
216475
216521
216566
216646
216721
216775
216900
216963
217071
217288
217414
217500
217580
217621
217652
217675
217738
217799
217932
218002
218079
218131
218193
218227
218215
218171
218009
217746
216747
216400
216145
215951
215832
215769
215775
215792
215871
215945
216300
216379
216513
216614
216724
216816
216843
216871
216913
216871
216791
216693
216660
216627
216603
216621
216620
216654
216689
216737
216836
216899
216947
216967
217002
217023
217063
217086
217140
217177
217263
217412
217458
217501
217548
217559
217467
217305
217038
215961
215680
215434
215230
215119
215047
215046
215073
215168
215234
215496
215593
215699
215829
215901
215975
216033
216090
216120
216098
216082
216049
216011
215975
215975
215988
216014
216046
216085
216136
216332
216356
216392
216451
216489
216539
216586
216656
216704
216764
216910
217025
217092
217159
217225
217231
217169
217038
216809
216499
215387
215174
214991
214849
214751
214735
214754
214823
214879
215101
215215
215308
215394
215477
215560
215627
215701
215733
215771
215787
215769
215735
215726
215727
215731
215763
215783
215846
215881
216119
216144
216224
216301
216395
216486
216539
216629
216718
216787
217062
217125
217213
217305
217367
217440
217478
217455
217333
217115
216130
215874
215623
215431
215315
215256
215258
215311
215389
215492
215705
215879
215994
216107
216227
216331
216449
216488
216559
216626
216672
216682
216688
216686
216694
216712
216778
216833
216906
217161
217208
217264
217349
217417
217497
217562
217626
217699
217776
218004
218021
218058
218104
218165
218177
218177
218113
217936
217683
216526
216167
215840
215617
215425
215312
215260
215273
215305
215365
215565
215692
215768
215872
215939
215992
216025
216060
216074
216085
215937
215966
215953
215951
215945
215972
215991
216015
216062
216209
216298
216366
216438
216510
216556
216602
216649
216702
216766
216958
216982
217047
217125
217204
217261
217316
217330
217282
217124
216184
215772
215427
215124
214911
214756
214682
214662
214701
214751
214986
215055
215157
215238
215313
215423
215523
215569
215612
215641
215603
215634
215605
215572
215562
215568
215555
215619
215645
215721
215850
216003
216064
216114
216196
216238
216286
216336
216379
216506
216613
216655
216695
216772
216810
216857
216888
216922
216892
216307
215972
215609
215290
215025
214817
214669
214617
214562
214594
214867
214950
215057
215164
215256
215359
215481
215564
215651
215701
215824
215778
215750
215733
215710
215703
215690
215701
215710
215736
215829
215944
215997
216086
216146
216202
216245
216309
216394
216473
216596
216717
216792
216855
216910
216948
217002
217059
217099
216972
216815
216508
216187
215870
215581
215344
215150
215061
214991
215110
215196
215326
215444
215551
215653
215775
215931
216047
216165
216408
216414
216433
216416
216404
216401
216384
216392
216378
216404
216598
216617
216702
216803
216860
216931
217023
217078
217145
217192
217404
217498
217586
217652
217747
217834
217919
218032
218135
218227
218296
218209
217969
217680
217323
217020
216708
216484
216309
216209
216214
216374
216504
216640
216743
216869
216978
217147
217274
217557
217612
217640
217636
217607
217550
217495
217458
217404
217368
217401
217410
217432
217456
217524
217527
217592
217623
217663
217713
217821
217814
217806
217841
217866
217909
217962
218006
218052
218086
218054
217827
217560
217229
216821
216474
216120
215844
215601
215481
215358
215481
215562
215657
215762
215887
216039
216138
216253
216384
216524
216612
216651
216641
216619
216591
216562
216529
216522
216503
216598
216615
216664
216732
216798
216856
216921
216993
217079
217290
217340
217385
217452
217533
217588
217662
217708
217789
217875
218020
217944
217783
217505
217147
216777
216380
216033
215752
215521
215299
215259
215339
215398
215469
215573
215683
215792
215876
215995
216225
216328
216375
216408
216411
216404
216389
216334
216309
216273
216169
216274
216328
216387
216403
216439
216528
216598
216650
216808
216934
217005
217072
217138
217205
217285
217339
217433
217473
217703
217715
217712
217575
217378
217077
216713
216325
216009
215684
215180
215130
215120
215163
215253
215363
215471
215583
215668
215787
216145
216207
216283
216365
216414
216459
216472
216469
216426
216418
216351
216416
216432
216461
216515
216577
216627
216670
216751
216823
216977
217140
217198
217267
217339
217400
217471
217572
217637
217817
217873
217912
217859
217744
217501
217185
216816
216442
216073
215381
215311
215261
215283
215345
215437
215510
215607
215690
215798
216147
216212
216294
216359
216378
216392
216367
216349
216321
216259
216238
216162
216167
216186
216200
216255
216306
216359
216422
216468
216593
216676
216759
216806
216880
216943
216990
217075
217129
217185
217312
217430
217450
217420
217277
217049
216714
216363
216005
215710
215018
214978
214947
214978
215035
215087
215184
215296
215376
215454
215761
215838
215937
216020
216048
216110
216104
216125
216109
216134
216103
216056
216113
216107
216150
216216
216271
216353
216414
216474
216721
216734
216789
216851
216938
217003
217058
217135
217203
217270
217462
217546
217607
217639
217611
217483
217239
216950
216615
216272
215416
215340
215271
215275
215288
215359
215438
215524
215625
215759
215973
216143
216250
216366
216432
216479
216553
216570
216584
216618
216608
216605
216639
216683
216721
216778
216831
216915
217002
217088
217351
217348
217433
217524
217595
217692
217774
217865
217951
218062
218404
218423
218498
218588
218655
218643
218580
218428
218192
217859
216867
216636
216447
216344
216292
216323
216381
216482
216584
216689
216974
217091
217246
217349
217463
217527
217614
217661
217706
217722
217555
217573
217563
217583
217561
217561
217566
217612
217678
217864
217954
217988
218042
218085
218143
218178
218236
218280
218336
218549
218584
218640
218724
218793
218853
218896
218893
218830
218670
217695
217307
216987
216711
216494
216386
216336
216309
216342
216384
216683
216746
216827
216939
217008
217092
217180
217226
217273
217310
217247
217262
217251
217213
217184
217172
217180
217177
217198
217249
217298
217412
217449
217506
217560
217617
217683
217722
217791
217884
217947
218007
218061
218119
218171
218224
218280
218347
218367
218136
217860
217516
217160
216810
216505
216225
216016
215901
215843
215955
216026
216107
216215
216302
216407
216477
216599
216690
216798
217109
217129
217143
217189
217220
217245
217261
217259
217295
217297
217416
217532
217618
217680
217774
217852
217933
218019
218057
218133
218230
218363
218410
218473
218520
218556
218600
218662
218689
218722
218682
218691
218536
218323
217996
217620
217240
216850
216517
215903
215866
215827
215862
215944
215986
216080
216146
216224
216300
216571
216618
216693
216763
216781
216777
216769
216757
216692
216642
216597
216544
216565
216585
216604
216634
216687
216752
216816
216868
217077
217111
217138
217200
217222
217284
217378
217439
217459
217494
217569
217654
217712
217724
217778
217776
217610
217347
217048
216696
215628
215476
215338
215249
215221
215224
215266
215334
215436
215638
215737
215807
215910
215969
216031
216124
216184
216233
216257
216277
216217
216186
216171
216159
216167
216200
216226
216268
216330
216518
216546
216603
216663
216729
216805
216861
216921
216968
217013
217201
217260
217323
217375
217432
217469
217518
217567
217580
217531
216796
216498
216166
215857
215618
215390
215303
215268
215287
215346
215524
215693
215806
215899
216012
216131
216260
216332
216400
216500
216548
216543
216549
216550
216519
216549
216547
216548
216586
216724
216772
216831
216906
216990
217058
217124
217203
217283
217367
217627
217677
217741
217832
217916
217974
218050
218128
218199
218289
218391
218233
217998
217687
217365
217013
216724
216452
216268
216138
216071
216242
216328
216466
216605
216748
216855
217001
217136
217272
217529
217654
217684
217712
217694
217687
217661
217632
217621
217678
217661
217769
217829
217883
217958
218017
218079
218151
218204
218270
218419
218494
218577
218623
218681
218700
218761
218807
218868
218904
219012
218854
218659
218328
217978
217588
217195
216839
216546
216310
216078
216063
216111
216179
216263
216358
216470
216536
216656
216752
216947
216984
216963
216953
216925
216911
216860
216837
216788
216751
216754
216803
216836
216896
216947
216989
217050
217094
217169
217244
217333
217470
217522
217594
217627
217702
217765
217833
217875
218063
218114
218102
217999
217814
217509
217105
216741
216403
216111
215495
215397
215391
215464
215499
215546
215712
215982
215998
216005
216354
216454
216480
216457
216580
216634
216590
216599
216550
216498
216583
216541
216549
216563
216631
216694
216746
216777
216833
216910
217112
217212
217257
217355
217434
217501
217539
217645
217721
217818
217918
218064
218128
218183
218153
218001
217759
217476
217134
216135
215961
215826
215753
215740
215760
215826
215926
216026
216140
216479
216601
216720
216847
216953
217016
217101
217143
217150
217196
217187
217171
217165
217155
217167
217213
217256
217340
217419
217499
217790
217846
217911
218012
218088
218176
218239
218332
218408
218457
218654
218744
218853
218895
218921
218849
218695
218440
218124
217752
216786
216640
216478
216427
216417
216445
216516
216620
216703
216860
217166
217340
217450
217530
217602
217642
217661
217668
217645
217509
217487
217448
217442
217468
217504
217524
217547
217569
217640
217775
217804
217850
217865
217944
217983
218016
218092
218143
218205
218456
218499
218561
218597
218582
218502
218295
218017
217683
217319
216329
216103
215952
215865
215854
215874
215933
216001
216064
216159
216333
216471
216530
216614
216675
216693
216720
216710
216658
216631
216278
216310
216256
216232
216232
216234
216250
216287
216341
216467
216565
216639
216679
216731
216760
216816
216868
216921
216942
217150
217155
217215
217274
217301
217288
217173
216965
216655
216271
215133
214801
214604
214451
214352
214308
214309
214332
214387
214459
214685
214733
214808
214905
214994
215048
215092
215132
215188
215168
215084
215087
215058
215051
215042
215072
215094
215137
215160
215222
215296
215409
215474
215504
215583
215638
215697
215735
215775
215909
215994
216093
216117
216182
216241
216242
216196
216047
215810
214925
214610
214322
214142
214017
213957
213938
213985
214037
214090
214374
214424
214513
214637
214731
214817
214887
214960
215000
215025
215062
214992
214991
214968
214987
214998
215021
215066
215121
215152
215317
215462
215501
215588
215669
215772
215833
215900
215973
216059
216259
216410
216503
216592
216679
216771
216826
216815
216707
216547
215552
215321
215089
214902
214809
214773
214801
214867
214989
215085
215476
215605
215730
215892
216032
216152
216263
216336
216383
216424
216438
216408
216424
216473
216488
216537
216592
216661
216718
216802
217095
217115
217231
217311
217401
217477
217606
217681
217787
217868
218190
218317
218433
218536
218650
218729
218734
218648
218483
218274
217311
217124
216898
216785
216717
216687
216702
216762
216866
217186
217386
217562
217707
217861
217981
218099
218171
218226
218261
218189
218181
218131
218113
218096
218101
218121
218167
218220
218284
218518
218575
218625
218702
218776
218806
218852
218936
218964
219012
219229
219251
219332
219392
219474
219465
219425
219254
219053
218766
217869
217651
217466
217368
217285
217284
217342
217406
217492
217569
217860
217986
218117
218214
218315
218386
218455
218493
218525
218559
218462
218489
218503
218502
218519
218544
218566
218631
218688
218873
218962
219024
219105
219156
219209
219298
219341
219426
219489
219748
219802
219869
219953
219981
220019
219952
219859
219671
219418
218713
218478
218333
218219
218205
218176
218215
218268
218324
218422
218696
218769
218858
218964
219054
219145
219223
219275
219330
219374
219367
219372
219362
219371
219400
219409
219420
219475
219522
219588
219678
219802
219871
219916
219990
220030
220106
220150
220206
220378
220461
220504
220591
220631
220667
220673
220591
220439
220239
219582
219373
219243
219140
219113
219112
219169
219258
219348
219473
219884
219975
220104
220251
220363
220464
220571
220632
220695
220740
220782
220779
220748
220760
220750
220752
220790
220865
220930
221012
221215
221347
221430
221504
221603
221670
221744
221804
221851
221953
222063
222185
222265
222324
222365
222378
222344
