Raw_IR
243431
243482
243563
243808
243954
244096
244200
244311
244403
244507
244583
244677
244764
244944
245072
245170
245255
245326
245423
245496
245582
245633
245711
245809
245930
246010
246104
246192
246267
246375
246511
246599
246712
247035
247057
246889
246477
245824
244999
244131
243312
242588
242084
241680
241749
241887
242066
242248
242355
242462
242520
242569
242604
242830
242937
243104
243312
243462
243618
243746
243852
243876
243882
243813
243854
243884
243913
243971
244062
244171
244260
244355
244482
244669
244840
244915
245009
245084
245205
245255
245352
245407
245615
245701
245770
245842
245860
245921
245981
246026
246108
246174
246459
246539
246651
246768
246888
246941
246918
246749
246326
245686
243344
242704
242226
241980
241871
241906
242009
242164
242331
242494
242818
242838
242870
242907
242997
243116
243273
243452
243626
243764
243979
244014
244000
243979
243951
243939
243938
243999
244072
244144
244353
244586
244706
244804
244918
245002
245102
245177
245251
245442
245563
245617
245700
245781
245853
245912
245952
246017
246044
246284
246336
246400
246476
246594
246670
246794
246913
247019
247096
246787
246189
245423
244526
243648
242878
242251
241807
241606
241509
241826
241919
242029
242118
242155
242202
242187
242231
242241
242317
242694
242912
243095
243225
243315
243384
243402
243430
243414
243392
243388
243500
243563
243656
243734
243846
243965
244054
244160
244424
244541
244631
244686
244773
244822
244920
244989
245083
245142
245399
245463
245527
245570
245626
245685
245725
245787
245853
245949
246262
246332
246467
246585
246667
246740
246694
246435
245922
245200
242599
241885
241447
241186
241082
241116
241208
241332
241466
241583
241702
241775
241755
241796
241849
241948
242063
242266
242433
242634
242880
242989
243009
243032
243012
243034
243036
243063
243119
243227
243416
243556
243668
243774
243864
243986
244072
244179
244280
244366
244606
244677
244792
244898
244991
245099
245186
245259
245328
245411
245644
245688
245775
245868
245954
246053
246149
246254
246355
246483
246890
246860
246744
246378
245774
244985
244094
243220
242512
241921
241384
241494
241611
241748
241897
242020
242129
242184
242185
242214
242329
242506
242681
242869
243052
243194
243322
243366
243424
243434
243301
243376
243417
243478
243558
243645
243752
243846
243940
244270
244401
244499
244577
244656
244741
244810
244885
244950
245028
245235
245241
245277
245306
245305
245320
245298
245316
245306
245315
245552
245608
245714
245842
245972
246104
246227
246256
246176
245826
243635
242793
242094
241541
241184
240998
241004
241059
241178
241329
241662
241747
241781
241832
241876
241947
242073
242255
242451
242695
243101
243273
243323
243361
243356
243339
243302
243291
243288
243417
243536
243646
243736
243843
243944
244076
244159
244252
244349
244668
244737
244831
244905
244995
245111
245193
245300
245414
245506
245747
245781
245847
245898
245936
245992
246078
246137
246235
246318
246676
246778
246917
247042
247122
247105
246887
246382
245634
244758
242157
241690
241350
241227
241226
241313
241445
241562
241687
241817
241886
241968
241997
242047
242121
242253
242446
242627
242802
243227
243294
243350
243371
243348
243349
243371
243380
243476
243543
243888
244001
244152
244267
244415
244549
244677
244791
244936
245049
245461
245534
245663
245746
245857
245974
246114
246222
246331
246482
246907
247005
247116
247208
247291
247360
247461
247528
247647
247754
248015
248158
248276
248332
248284
248031
247539
246779
245845
244853
242444
242173
242010
241967
242067
242185
242316
242487
242615
242812
242880
242935
243001
243113
243256
243445
243642
243838
244021
244355
244375
244417
244413
244385
244438
244439
244489
244516
244601
244921
244979
245068
245205
245322
245426
245535
245603
245663
245728
245958
245978
246047
246150
246244
246317
246383
246447
246519
246519
246521
246582
246611
246644
246685
246739
246814
246887
246988
247131
247297
247446
247424
247148
246604
245881
245019
244138
243352
242044
242031
242103
242256
242462
242672
242859
243013
243172
243255
243469
243538
243693
243873
244068
244258
244463
244613
244723
244775
244827
244806
244799
244824
244859
244920
245004
245109
245220
245346
245791
245893
245993
246112
246240
246356
246482
246570
246703
246815
247100
247215
247322
247420
247461
247565
247656
247721
247833
247897
248117
248326
248443
248569
248665
248765
248780
248607
248218
245813
245022
244281
243743
243396
243231
243213
243310
243431
243602
244035
244135
244217
244303
244358
244422
244536
244691
244904
245117
245629
245713
245741
245774
245786
245797
245777
245809
245809
245875
246147
246236
246358
246465
246597
246735
246814
246932
247054
247143
247350
247492
247569
247675
247752
247823
247891
247986
248045
248102
248146
248301
248352
248412
248491
248573
248651
248744
248840
249142
249199
249084
248703
248088
247243
246313
245388
244553
243907
243206
243246
243367
243497
243635
243784
243864
243967
244015
244051
244244
244321
244481
244645
244847
245017
245169
245293
245384
245425
245511
245456
245493
245514
245554
245626
245722
245827
245935
246020
246344
246510
246628
246723
246828
246918
246982
247094
247187
247264
247485
247673
247768
247833
247905
247995
248043
248075
248147
248274
248404
248503
248573
248669
248781
248913
249022
249125
249222
248656
247987
247113
246165
245250
244439
243845
243429
243230
243176
243482
243586
243707
243806
243863
243933
243949
243992
244023
244104
244599
244748
244918
245071
245177
245262
245322
245334
245333
245334
245362
245463
245519
245605
245718
245824
245931
246045
246156
246272
246513
246690
246774
246858
246957
247036
247138
247228
247330
247595
247697
247781
247862
247933
248004
248074
248141
248252
248291
248542
248656
248772
248864
248995
249085
249174
249199
249113
248754
246491
245560
244783
244172
243775
243574
243502
243569
243737
243872
244384
244425
244511
244543
244604
244643
244743
244855
245022
245211
245573
245698
245740
245746
245749
245725
245703
245707
245742
245788
245946
246132
246248
246365
246459
246550
246681
246782
246881
247131
247263
247350
247462
247540
247646
247715
247822
247878
247956
248146
248224
248308
248387
248468
248556
248640
248756
248859
248966
249246
249198
248938
248477
247753
246930
246033
245212
244522
244000
243612
243660
243788
243974
244107
244244
244340
244438
244486
244533
244733
244898
245079
245279
245407
245590
245687
245765
245801
245830
245754
245825
245869
245909
245979
246074
246174
246255
246376
246530
246805
246982
247067
247195
247268
247332
247429
247519
247601
247875
247968
248057
248139
248221
248280
248325
248394
248435
248508
248755
248808
248891
249005
249089
249210
249331
249447
249494
249406
247811
246809
245896
245036
244372
243898
243628
243531
243553
243619
243981
244120
244166
244229
244283
244294
244346
244404
244506
244663
245147
245335
245461
245541
245589
245605
245605
245577
245595
245601
245640
245758
245874
245951
246061
246152
246266
246367
246460
246724
246865
246919
247037
247103
247191
247270
247371
247465
247555
247801
247846
247903
247963
248017
248088
248136
248216
248288
248369
248735
248809
248937
249043
249071
249002
248669
248077
247279
246402
244055
243589
243321
243247
243240
243315
243425
243546
243663
243750
243805
243868
243901
243966
244064
244231
244405
244598
244754
244915
245038
245167
245159
245168
245183
245212
245226
245303
245379
245606
245721
245854
245935
246014
246126
246228
246287
246403
246493
246727
246810
246876
246958
247077
247095
247199
247264
247290
247368
247596
247618
247712
247776
247873
247968
248065
248175
248260
248370
248180
247692
247015
246198
245364
244554
243931
243463
243207
243103
243298
243487
243596
243681
243768
243833
243863
243898
243925
244009
244363
244624
244773
244920
244996
245037
245055
245041
245022
244989
245072
245133
245194
245269
245362
245445
245537
245636
245730
245993
246058
246131
246219
246297
246393
246446
246563
246628
246722
246936
246956
247020
247100
247172
247263
247329
247437
247495
247615
247946
248024
248033
247960
247667
247163
246441
245590
244756
243997
242663
242606
242660
242747
242854
243008
243080
243173
243224
243302
243264
243448
243566
243728
243919
244109
244264
244442
244504
244528
244546
244565
244556
244596
244640
244703
244762
244890
244951
245319
245407
245499
245622
245722
245799
245878
245980
246056
246140
246416
246462
246561
246602
246691
246788
246847
246889
246930
246972
247206
247225
247320
247402
247510
247593
247718
247829
247935
248008
247292
246664
245815
244923
244057
243335
242818
242489
242361
242335
242544
242719
242779
242836
242864
242877
242886
242887
242916
243260
243474
243653
243814
243954
244059
244140
244170
244180
244194
244248
244278
244325
244397
244477
244589
244683
244768
244871
244985
245289
245338
245429
245515
245589
245698
245774
245882
245967
246054
246368
246399
246453
246529
246579
246638
246688
246750
246815
246886
247084
247252
247356
247462
247589
247714
247807
247884
247842
247632
245446
244633
243794
243107
242606
242340
242206
242219
242285
242591
242695
242765
242817
242830
242863
242881
242944
243057
243197
243787
243932
244052
244134
244199
244232
244251
244233
244278
244298
244490
244523
244616
244707
244834
244915
245026
245137
245234
245309
245587
245650
245742
245819
245908
246004
246105
246197
246292
246382
246583
246682
246756
246776
246856
246920
246995
247031
247117
247202
247380
247571
247688
247793
247903
247943
247900
247640
247130
244628
243865
243199
242764
242496
242439
242457
242566
242702
242819
243080
243104
243149
243139
243188
243255
243394
243558
243719
243903
244336
244352
244391
244401
244399
244379
244397
244436
244486
244551
244881
244962
245061
245168
245266
245407
245486
245574
245686
245772
245991
246090
246165
246275
246343
246449
246537
246621
246705
246783
246837
247015
247048
247119
247177
247246
247325
247395
247495
247808
247966
248036
248128
248117
247929
247471
246805
245951
245027
242892
242545
242369
242363
242417
242546
242683
242799
242877
242978
243077
243085
243105
243181
243301
243473
243671
243865
244017
244163
244402
244378
244384
244367
244362
244387
244427
244498
244560
244631
244888
245026
245162
245268
245345
245470
245543
245627
245724
245816
245992
246165
246268
246367
246460
246556
246607
246714
246783
246939
247046
247106
247158
247228
247295
247378
247471
247558
247648
247971
248107
248223
248315
248341
248205
247859
247238
246365
245423
243030
242573
242340
242261
242284
242397
242516
242663
242768
242868
243008
242996
243009
243092
243167
243329
243504
243685
243865
244019
244259
244323
244310
244324
244335
244380
244386
244423
244520
244611
244830
244997
245098
245231
245322
245444
245557
245652
245742
245863
246084
246250
246311
246409
246515
246633
246700
246781
246846
246936
247183
247281
247344
247422
247475
247553
247614
247694
247778
247880
248207
248288
248411
248538
248687
248794
248873
248875
248675
248202
245618
244668
243872
243290
242937
242756
242756
242838
242970
243132
243501
243605
243649
243692
243707
243762
243812
243943
244107
244293
244707
244862
244933
244980
244979
245010
245006
245027
245037
245112
245254
245419
245500
245622
245733
245823
245931
246040
246150
246418
246528
246633
246744
246824
246920
247032
247116
247240
247333
247620
247652
247699
247777
247820
247884
247936
248005
248096
248158
248404
248465
248568
248673
248770
248875
248972
248989
248886
248504
246112
245207
244433
243786
243372
243164
243148
243203
243348
243509
243923
244077
244165
244200
244289
244312
244422
244552
244721
244914
245266
245386
245459
245469
245448
245443
245439
245436
245463
245585
245710
245827
245915
246043
246184
246297
246417
246523
246626
246969
247036
247135
247202
247290
247402
247479
247579
247690
247757
248055
248099
248147
248223
248272
248349
248406
248472
248542
248622
248945
249006
249138
249252
249349
249439
249384
249127
248599
247839
245005
244283
243712
243364
243229
243225
243276
243404
243559
243703
243927
244055
244098
244145
244202
244266
244363
244529
244704
245121
245269
245317
245367
245400
245402
245400
245437
245441
245474
245693
245788
245871
245979
246118
246241
246330
246448
246558
246666
246963
247045
247139
247249
247344
247439
247526
247627
247723
247809
248091
248122
248209
248253
248306
248353
248431
248495
248558
248637
248854
249034
249135
249253
249384
249495
249572
249555
249286
248747
245945
245061
244293
243713
243371
243213
243195
243254
243380
243753
243925
244002
244065
244120
244145
244177
244241
244354
244500
245012
245165
245260
245313
245379
245385
245379
245379
245399
245400
245621
245664
245779
245863
245962
246084
246201
246319
246457
246557
246903
246958
247053
247159
247261
247350
247443
247525
247626
247749
247999
248098
248186
248266
248334
248421
248486
248548
248623
248698
248897
249036
249114
249234
249347
249474
249581
249712
249808
249854
248469
247610
246643
245665
244833
244192
243771
243545
243469
243785
243997
244141
244286
244420
244493
244560
244622
244671
244772
245275
245404
245560
245693
245794
245867
245895
245893
245897
245864
245925
245924
245963
246048
246106
246215
246314
246422
246511
246629
246921
247025
247101
247229
247305
247407
247494
247604
247668
247794
247972
248117
248158
248241
248261
248347
248399
248490
248536
248616
248767
248942
249054
249189
249280
249389
249394
249296
248980
246629
245728
244876
244217
243763
243473
243392
243427
243553
243696
244178
244279
244358
244443
244477
244536
244604
244717
244885
245037
245553
245595
245651
245685
245690
245698
245697
245680
245696
245710
245914
245986
246097
246195
246321
246460
246561
246654
246779
246883
247136
247243
247358
247440
247555
247645
247744
247844
247920
248020
248152
248297
248363
248428
248498
248557
248653
248708
248785
248991
249162
249253
249398
249474
249511
249414
249071
248418
247550
244648
243911
243409
243122
242992
243003
243097
243232
243353
243505
243843
243867
243889
243940
243973
244053
244170
244330
244510
244661
245056
245052
245093
245103
245084
245073
245082
245106
245134
245179
245375
245534
245627
245743
245855
245974
246069
246191
246261
246376
246556
246697
246791
246868
246973
247078
247139
247228
247326
247441
247501
247644
247673
247743
247804
247868
247948
248042
248115
248264
248590
248734
248802
248792
248560
248131
247414
246514
245504
244559
242783
242585
242504
242588
242678
242813
242939
243063
243142
243239
243371
243356
243414
243521
243642
243836
244008
244169
244299
244407
244499
244550
244523
244538
244560
244597
244628
244706
244794
244904
245157
245303
245414
245503
245594
245694
245787
245876
245937
246098
246274
246434
246493
246595
246685
246770
246816
246895
246945
247124
247203
247271
247345
247427
247533
247602
247731
247851
247942
247936
247508
246896
246051
245178
244314
243572
243000
242601
242435
242631
242763
242916
243032
243167
243274
243349
243371
243439
243484
243891
244072
244252
244383
244503
244533
244588
244549
244526
244507
244469
244520
244579
244645
244731
244827
244894
245006
245104
245193
245399
245554
245640
245718
245813
245925
246001
246071
246139
246321
246420
246467
246546
246598
246692
246742
246826
246898
246998
247379
247404
247481
247401
247122
246643
245905
245053
244209
243404
242058
241921
241955
242067
242181
242323
242467
242583
242664
242742
242841
242906
243010
243169
243337
243546
243710
243829
243946
243994
243940
243975
243984
243983
244016
244069
244135
244219
244308
244444
244686
244889
244979
245103
245174
245268
245344
245435
245522
245757
245874
245968
246025
246126
246200
246244
246288
246341
246383
246655
246691
246784
246887
246955
247089
247182
247284
247373
247366
246153
245249
244296
243393
242599
241989
241601
241431
241388
241433
241786
241870
241931
241984
241998
242015
242024
242025
242108
242198
242696
242864
243042
243146
243242
243293
243313
243315
243305
243338
243369
243497
243600
243687
243793
243877
244003
244089
244184
244393
244535
244613
244717
244791
244890
244964
245068
245155
245261
245525
245620
245670
245737
245826
245881
245916
246004
246046
246115
246345
246408
246483
246595
246690
246804
246943
247059
247153
247194
246183
245296
244335
243341
242464
241781
241326
241090
240993
241013
241288
241453
241492
241543
241554
241584
241600
241627
241649
241735
242124
242378
242560
242692
242808
242881
242918
242948
242919
242974
242991
243097
243178
243268
243338
243485
243616
243718
243830
243925
244231
244330
244427
244523
244606
244698
244794
244880
244979
245084
245381
245439
245506
245566
245666
245706
245755
245839
245889
245965
246252
246298
246371
246486
246594
246719
246849
246949
247044
247116
246044
245244
244339
243392
242565
241939
241523
241288
241238
241290
241631
241825
241950
242010
242039
242066
242074
242110
242154
242277
242706
242972
243138
243227
243316
243377
243400
243399
243425
243471
243564
243608
243690
243792
243905
243992
244092
244207
244303
244617
244677
244771
244848
244946
245018
245103
245216
245297
245375
245660
245692
245744
245805
245860
245892
245950
246003
246064
246120
246325
246425
246532
246628
246742
246856
246951
246978
246848
246471
244042
243215
242430
241843
241464
241301
241242
241315
241438
241597
241898
242063
242096
242136
242161
242198
242278
242418
242575
243094
243245
243322
243360
243385
243384
243359
243392
243384
243379
243584
243632
243765
243855
243961
244105
244194
244312
244412
244512
244852
244892
244983
245076
245135
245235
245334
245437
245508
245595
245876
245917
245961
246037
246092
246156
246219
246294
246376
246464
246733
246862
246989
247132
247230
247265
247176
246825
246183
245329
242430
241854
241386
241133
241057
241087
241174
241313
241458
241601
241717
241789
241793
241806
241862
241943
242058
242229
242406
242592
243001
243043
243109
243136
243140
243149
243157
243190
243216
243284
243575
243630
243754
243865
243959
244093
244177
244272
244381
244438
244759
244797
244902
244989
245078
245182
245281
245370
245438
245515
245781
245845
245915
245975
246038
246100
246162
246251
246320
246367
246604
246773
246866
247001
247132
247254
247349
247372
247199
246731
243968
243051
242244
241613
241223
241018
240989
241053
241172
241525
241649
241713
241790
241795
241811
241842
241881
241983
242125
242670
242826
242959
243055
243118
243153
243194
243185
243201
243215
243415
243455
243540
243624
243743
243865
243960
244105
244198
244324
244575
244695
244781
244907
245001
245086
245200
245297
245381
245497
245722
245870
245949
246053
246131
246220
246329
246394
246451
246545
246700
246847
246929
247040
247151
247245
247363
247510
247611
247961
248002
247859
247429
246724
245811
244854
243866
243039
242398
241748
241802
241928
242087
242248
242386
242539
242619
242708
242737
242899
242984
243133
243294
243496
243647
243826
243936
244020
244069
244168
244146
244188
244189
244254
244282
244386
244477
244574
244673
244967
245128
245221
245316
245432
245565
245658
245769
245890
245979
246224
246402
246487
246591
246687
246770
246856
246942
246983
247138
247264
247314
247414
247456
247532
247625
247729
247783
247887
248233
248334
248357
248243
247881
247274
246429
245543
244637
243855
242588
242499
242533
242661
242797
242983
243146
243276
243396
243503
243703
243732
243831
243987
244172
244337
244501
244643
244713
244773
244775
244814
244808
244849
244829
244914
244964
245089
245183
245300
245600
245797
245923
246031
246160
246251
246357
246466
246536
246668
246903
247056
247120
247249
247345
247435
247530
247609
247682
247762
247954
248043
248109
248197
248273
248359
248439
248544
248644
248763
249106
249078
248866
248395
247656
246797
245812
244905
244121
243545
242976
242979
243078
243216
243363
243499
243630
243728
243782
243854
243938
244087
244203
244378
244552
244717
244874
244989
245051
245110
245089
245184
245186
245218
245258
245324
245423
245511
245597
245734
245994
246140
246258
246369
246453
246587
246652
246775
246866
246979
247275
247361
247459
247575
247656
247748
247833
247914
247992
248087
248321
248358
248432
248511
248567
248658
248740
248815
248900
249018
249415
249497
249580
249598
249392
248930
248208
247272
246316
245369
243468
243293
243230
243259
243351
243488
243630
243754
243859
243958
244048
244130
244176
244272
244382
244541
244699
244917
245037
245176
245288
245410
245395
245404
245409
245458
245494
245566
245638
245898
246021
246140
246266
246379
246498
246594
246695
246800
246904
247239
247323
247427
247521
247639
247714
247835
247914
248015
248123
248408
248438
248518
248559
248643
248708
248798
248841
248955
249012
249314
249382
249488
249590
249711
249811
249887
249882
249649
249105
246465
245583
244867
244276
243938
243745
243724
243774
243892
244082
244421
244608
244692
244731
244789
244835
244940
245055
245206
245664
245840
245917
245987
245999
246014
246012
246020
246013
246048
246179
246225
246324
246383
246512
246603
246700
246811
246903
247014
247282
247353
247440
247555
247634
247714
247796
247885
247960
248065
248307
248348
248408
248467
248517
248598
248663
248734
248749
248843
249028
249195
249289
249391
249498
249581
249622
249502
249126
248490
245801
245075
244442
244043
243747
243669
243668
243773
243928
244137
244467
244607
244674
244724
244804
244863
244967
245125
245286
245446
245814
245898
245924
245941
245958
245953
245950
245950
245959
246024
246264
246324
246440
246538
246648
246772
246891
246998
247105
247190
247541
247578
247689
247767
247874
247952
248057
248152
248245
248321
248544
248633
248717
248794
248842
248916
248999
249058
249120
249223
249445
249597
249708
249826
249932
250028
250003
249799
249322
248607
245699
244951
244342
243933
243709
243635
243655
243763
243887
244273
244357
244432
244489
244529
244574
244637
244710
244828
244976
245479
245535
245648
245694
245768
245756
245798
245798
245827
245850
246098
246132
246235
246342
246452
246596
246691
246793
246908
247006
247263
247352
247480
247550
247639
247730
247846
247924
248027
248085
248310
248423
248522
248574
248668
248713
248801
248856
248941
249016
249173
249333
249445
249547
249667
249782
249906
250010
250098
249156
248386
247455
246479
245582
244819
244250
243938
243778
243737
244057
244175
244288
244414
244499
244585
244634
244677
244719
244811
245209
245363
245509
245639
245755
245836
245894
245913
245931
245955
246023
246042
246108
246200
246259
246339
246446
246549
246662
246762
247043
247195
247273
247409
247470
247580
247659
247788
247885
247983
248182
248378
248450
248552
248642
248720
248781
248869
248929
249106
249218
249304
249373
249471
249584
249682
249785
249909
249999
249876
249422
248705
247842
246910
246002
245274
244687
244330
244122
244291
244373
244558
244679
244814
244921
245037
245072
245133
245200
245599
245712
245899
246006
246156
246204
246260
246265
246257
246228
246183
246207
246248
246303
246355
246448
246549
246638
246740
246833
247070
247226
247315
247405
247502
247590
247698
247769
247887
248000
248156
248282
248374
248449
248506
248565
248641
248694
248743
248799
249027
249147
249221
249318
249438
249518
249592
249486
249232
248693
246176
245295
244600
244085
243754
243593
243570
243651
243761
243916
244364
244397
244448
244493
244553
244611
244696
244818
244985
245134
245518
245598
245641
245650
245663
245658
245658
245656
245688
245708
245870
245993
246116
246204
246323
246420
246550
246633
246763
246872
247048
247213
247298
247374
247486
247556
247638
247732
247816
248004
248093
248157
248215
248263
248349
248392
248475
248541
248606
248955
249023
249129
249220
249251
249122
248693
248041
247178
246228
243847
243331
243095
242976
242990
243072
243181
243288
243407
243524
243664
243732
243748
243803
243894
244006
244139
244343
244488
244625
244843
244922
244947
244946
244928
244939
244954
244983
245048
245157
245315
245492
245591
245689
245805
245927
246024
246128
246213
246458
246553
246638
246749
246839
246942
247034
247132
247238
247334
247561
247610
247679
247750
247793
247892
247967
248034
248112
248189
248544
248632
248767
248835
248879
248766
248372
247732
246868
245899
243461
242981
242734
242627
242666
242746
242843
242962
243105
243196
243350
243421
243452
243503
243589
243677
243853
244037
244195
244361
244584
244710
244726
244748
244774
244767
244805
244846
244901
244988
245170
245281
245432
245513
245642
245725
245812
245906
246015
246112
246383
246480
246596
246690
246788
246882
246978
247063
247164
247233
247481
247484
247567
247642
247694
247778
247844
247920
248008
248124
248449
248518
248559
248441
248119
247488
246684
245769
244848
244030
242796
242665
242693
242822
242963
243114
243277
243390
243514
243573
243725
243801
243930
244049
244229
244396
244545
244650
244773
244815
244783
244811
244792
244805
244810
244845
244883
244961
245048
245147
245370
245526
245620
245732
245824
245932
246027
246115
246200
246469
246566
246659
246754
246860
246923
247009
247066
247111
247168
247321
247401
247465
247541
247628
247732
247823
247940
248016
248102
247740
247162
246339
245408
244528
243715
243026
242597
242328
242233
242506
242643
242778
242923
243023
243109
243150
243196
243257
243321
243752
243898
244063
244203
244294
244371
244409
244426
244430
244423
244449
244495
244541
244637
244714
244828
244934
245023
245132
245284
245525
245662
245754
245820
245906
246003
246076
246191
246272
246390
246557
246731
246813
246861
246922
247000
247061
247136
247179
247293
247450
247597
247710
247817
247914
248051
248138
248197
248118
246350
245399
244436
243529
242782
242274
241958
241820
241815
241887
242267
242358
242448
242500
242554
242572
242593
242629
242706
242809
243352
243489
243634
243750
243836
243854
243890
243882
243903
243884
244044
244071
244135
244255
244350
244442
244590
244682
244808
244906
245253
245279
245424
245513
245583
245677
245795
245877
246004
246085
246291
246403
246525
246582
246666
246743
246806
246862
246934
247007
247215
247361
247457
247549
247687
247772
247911
248009
248064
247966
246021
245107
244147
243252
242588
242089
241852
241734
241774
242099
242293
242390
242493
242574
242610
242629
242668
242712
242809
243281
243482
243623
243771
243863
243938
243983
244014
243996
244011
244128
244141
244228
244297
244404
244510
244603
244734
244821
244943
245261
245322
245421
245538
245631
245719
245836
245939
246024
246126
246449
246476
246529
246595
246657
246720
246780
246861
246914
246979
247167
247294
247376
247506
247596
247701
247772
247805
247653
247236
244716
243820
243030
242452
242051
241874
241806
241896
242009
242174
242484
242675
242735
242774
242803
242862
242917
243045
243210
243691
243862
243952
244045
244058
244058
244066
244035
244030
244052
244201
244310
244388
244504
244603
244725
244846
244953
245110
245177
245482
245559
245636
245724
245828
245928
246031
246120
246220
246322
246591
246620
246699
246750
246835
246918
247006
247046
247165
247274
247657
247691
247766
247783
247624
247201
246514
245644
244675
243732
241896
241659
241621
241649
241750
241883
242043
242157
242271
242348
242431
242506
242562
242649
242802
242965
243162
243330
243482
243607
243734
243811
243809
243828
243838
243882
243912
243995
244045
244189
244413
244572
244689
244801
244914
245027
245122
245219
245302
245543
245688
245788
245902
245998
246079
246174
246233
246319
246397
246580
246655
246720
246791
246871
246936
247020
247126
247199
247310
247687
247738
247775
247683
247310
246659
245784
244788
243812
242945
241547
241404
241403
241499
241621
241742
241865
241968
242048
242103
242233
242257
242324
242466
242606
242794
242971
243130
243250
243389
243450
243506
243499
243526
243534
243563
243618
243719
243804
243913
244193
244358
244458
244573
244678
244791
244863
244986
245079
245195
245385
245599
245665
245776
245843
245969
246052
246153
246216
246401
246518
246582
246662
246743
246815
246914
246993
247083
247200
247547
247677
247804
247853
247801
247564
247010
246188
245242
244260
242083
241722
241589
241601
241685
241813
241973
242119
242216
242327
242503
242513
242567
242647
242760
242913
243100
243297
243439
243601
243875
243850
243867
243845
243864
243892
243924
243982
244047
244132
244406
244545
244648
244769
244880
244964
245080
245182
245282
245388
245635
245797
245883
245995
246085
246175
246270
246342
246412
246488
246588
246720
246795
246861
246919
246981
247083
247172
247281
247527
247633
247616
247384
246875
246151
245253
244296
243437
242723
241695
241706
241802
241957
242122
242290
242427
242556
242630
242708
242858
242943
243098
243259
243432
243623
243753
243886
243955
243983
244009
243976
243966
243974
244012
244067
244158
244245
244340
244469
244884
244936
245046
245161
245245
245368
245441
245545
245628
245725
246027
246108
246193
246272
246342
246404
246478
246535
246627
246692
246872
246998
247075
247172
247298
247411
247509
247576
247517
247284
245022
244097
243211
242425
241899
241549
241380
241361
241440
241586
241948
242103
242177
242246
242279
242298
242368
242451
242576
243047
243275
243435
243527
243587
243665
243671
243683
243673
243686
243819
243869
243954
244056
244148
244263
244353
244478
244596
244701
245020
245077
245175
245276
245344
245429
245521
245631
245719
245797
246075
246102
246180
246229
246291
246353
246426
246516
246545
246654
246976
247054
247195
247323
247387
247418
247245
246835
246124
245216
242423
241813
241416
241177
241137
241163
241268
241377
241522
241619
241798
241913
241930
241959
242018
242097
242220
242381
242549
242762
243074
243196
243253
243269
243265
243298
243299
243335
243385
243597
243712
243838
243950
244070
244175
244290
244395
244514
244618
244976
245034
245140
245238
245343
245424
245535
245648
245759
245825
246105
246165
246236
246316
246396
246450
246523
246599
246680
246756
247106
247168
247312
247407
247504
247554
247491
247181
246583
245752
242839
242174
241675
241368
241272
241305
241400
241542
241692
241856
242062
242213
242248
242282
242337
242413
242537
242696
242895
243325
243468
243544
243564
243601
243606
243624
243663
243665
243703
243904
243982
244070
244173
244288
244386
244473
244586
244717
244785
245114
245174
245276
245391
245465
245590
245677
245778
245877
245966
246238
246263
246315
246388
246446
246526
246582
246665
246768
246848
247115
247244
247222
247017
246541
245805
244918
243999
243118
242380
241304
241366
241445
241568
241743
241897
242020
242144
242210
242295
242355
242499
242639
242826
242981
243156
243308
243441
243523
243571
243577
243583
243580
243598
243647
243685
243769
243851
243970
244077
244452
244535
244639
244753
244855
244973
245070
245143
245227
245339
245698
245735
245827
245943
246004
246083
246116
246208
246284
246354
246535
246652
246761
246844
246953
247055
247189
247279
247277
247133
245118
244203
243301
242482
241873
241484
241267
241210
241265
241417
241720
241895
241993
242052
242119
242132
242181
242231
242348
242797
243009
243162
243282
243376
243407
243468
243468
243488
243497
243597
243664
243708
243803
243903
243988
244114
244218
244325
244437
244769
244808
244935
245015
245104
245223
245323
245417
245508
245627
245922
245963
246036
246123
246187
246249
246289
246352
246428
246493
246687
246820
246923
247035
247151
247277
247405
247443
247389
247113
244731
243812
242925
242200
241685
241380
241242
241228
241315
241470
241732
241894
241958
241979
242010
242046
242078
242160
242262
242738
242932
243070
243194
243271
243285
243332
243359
243362
243386
243532
243569
243650
243743
243849
243931
244065
244179
244268
244390
244707
244755
244853
244949
245045
245127
245221
245303
245414
245487
245811
245877
245950
246040
246117
246171
246241
246318
246369
246443
246630
246768
246856
246969
247089
247211
247304
247408
247449
247328
245430
244541
243632
242831
242191
241776
241553
241498
241550
241913
242097
242210
242272
242337
242387
242419
242452
242506
242633
243135
243305
243444
243559
243647
243691
243724
243734
243724
243722
243860
243888
243952
244043
244121
244228
244350
244435
244561
244649
244980
245027
245138
245212
245342
245413
245503
245607
245686
245773
246006
246080
246117
246183
246244
246303
246343
246433
246465
246507
246693
246845
246949
247026
247129
247195
247207
247044
246631
246004
243308
242662
242095
241750
241580
241541
241629
241736
241885
242248
242362
242409
242456
242504
242520
242615
242749
242880
243077
243537
243616
243666
243675
243677
243662
243668
243699
243711
243755
244006
244066
244168
244253
244382
244495
244585
244696
244799
244890
245198
245231
245338
245427
245508
245606
245700
245799
245889
245952
246131
246217
246281
246342
246421
246494
246565
246630
246723
246831
247088
247266
247350
247372
247201
246798
246158
245312
244364
243466
241550
241401
241347
241382
241464
241605
241709
241828
241911
242006
242033
242065
242122
242191
242323
242495
242691
242852
243005
243321
243306
243331
243332
243368
243369
243419
243466
243531
243595
243935
243979
244111
244184
244297
244378
244467
244540
244626
244727
245039
245100
245185
245283
245386
245482
245585
245658
245750
245847
246027
246107
246201
246262
246301
246390
246483
246550
246639
246729
246982
247193
247335
247427
247487
247423
247126
246549
245761
242923
242237
241723
241420
241306
241279
241339
241465
241569
241698
241896
241958
241985
242016
242035
242123
242222
242364
242573
242761
243193
243256
243281
243357
243360
243377
243394
243417
243465
243513
243813
243848
243945
244059
244169
244269
244369
244478
244549
244656
244916
245044
245137
245239
245326
245445
245543
245633
245728
245809
245990
246139
246204
246261
246335
246403
246469
246554
246611
246742
246916
247104
247215
247306
247439
247504
247511
247282
246785
244238
243413
242653
242131
241825
241688
241677
241753
241881
242020
242408
242438
242492
242492
242520
242541
242617
242753
242953
243109
243633
243668
243745
243731
243729
243737
243729
243751
243804
243860
244135
244189
244317
244418
244555
244646
244791
244907
245003
245109
245351
245502
245607
245685
245779
245873
245954
246026
246118
246207
246351
246481
246552
246633
246701
246744
246807
246882
246984
247261
247429
247521
247589
247535
247268
246748
245956
245042
244120
241984
241695
241542
241554
241604
241748
241880
242049
242181
242285
242460
242480
242515
242590
242789
242940
243117
243315
243464
243598
243810
243803
243784
243775
243788
243796
243848
243862
243922
244033
244332
244464
244572
244681
244802
244887
244965
245073
245160
245280
245528
245674
245795
245871
245979
246065
246179
246272
246363
246483
246575
246764
246807
246893
246954
247051
247129
247225
247330
247641
247768
247804
247760
247464
246868
246085
245088
244087
243184
241604
241453
241448
241517
241637
241751
241876
241998
242072
242127
242282
242278
242347
242464
242626
242813
242964
243154
243292
243405
243635
243612
243638
243646
243709
243737
243793
243883
243956
244076
244416
244537
244647
244769
244890
244987
245078
245196
245280
245401
245663
245782
245880
245988
246093
246157
246264
246361
246434
246546
246641
246807
246890
246950
247041
247130
247206
247315
247438
247751
247911
247990
247951
247687
247163
246380
245465
244495
243601
242015
241845
241824
241927
242051
242168
242350
242468
242568
242656
242816
242828
242911
243051
243181
243348
243548
243693
243815
243950
244111
244069
244083
244086
244108
244159
244198
244274
244342
244433
244696
244836
244963
245041
245170
245252
245345
245471
245569
245679
245934
246098
246198
246268
246373
246432
246519
246570
246653
246738
246851
246971
247054
247135
247236
247305
247407
247479
247548
246937
246293
245447
244547
243676
242937
242399
242032
241849
241836
242199
242326
242475
242607
242682
242728
242788
242824
242914
242996
243527
243658
243818
243948
244016
244060
244092
244104
244073
244060
244171
244209
244278
244357
244475
244587
244684
244784
244919
245012
245267
245402
245497
245609
245687
245780
245878
245959
246059
246140
246300
246406
246494
246582
246645
246724
246782
246902
247000
247261
247413
247429
247384
247062
246461
245682
244763
243826
242994
241604
241516
241534
241629
241756
241909
242040
242144
242208
242284
242431
242450
242533
242666
242818
243030
243202
243388
243483
243609
243797
243735
243741
243763
243785
243797
243843
243950
244013
244104
244420
244567
244665
244757
244845
244956
245027
245127
245196
245316
245549
245704
245814
245895
246003
246062
246154
246228
246261
246358
246446
246596
246663
246782
246877
246989
247111
247201
247305
246967
246405
245577
244631
243661
242798
242074
241565
241306
241196
241437
241519
241637
241732
241821
241848
241866
241912
241929
241968
242344
242492
242697
242856
243020
243119
243199
243260
243292
243305
243410
243410
243468
243537
243650
243708
243830
243956
244073
244185
244474
244588
244684
244782
244899
245004
245062
245167
245291
245373
245634
245751
245867
245944
246032
246113
246162
246270
246331
246432
246584
246724
246806
246912
247031
247129
247245
247342
247429
246758
246070
245143
244170
243205
242420
241843
241461
241297
241282
241637
241747
241886
242002
242073
242137
242171
242198
242235
242305
242807
242930
243117
243265
243374
243489
243529
243555
243559
243610
243702
243729
243778
243853
243946
244063
244162
244257
244377
244490
244752
244919
244980
245094
245167
245273
245355
245473
245534
245652
245785
245958
246002
246058
246103
246167
246213
246287
246333
246564
246687
246796
246877
246960
246970
246897
246531
245917
245099
242513
241872
241492
241273
241228
241290
241413
241539
241688
241859
242119
242140
242204
242224
242320
242439
242596
242763
242976
243110
243444
243406
243442
243381
243393
243382
243434
243450
243515
243561
243809
243962
244075
244173
244315
244370
244490
244575
244697
244758
244986
245109
245235
245310
245421
245471
245574
245630
245724
245802
245930
246025
246116
246209
246284
246362
246478
246589
246707
246781
246554
246032
245249
244330
243398
242483
241774
241231
240949
240904
241016
241123
241247
241340
241423
241472
241503
241513
241553
241799
241957
242111
242311
242468
242603
242689
242789
242800
242810
242868
242866
242891
242955
243037
243092
243180
243278
243391
243472
243752
243881
243982
244079
244132
244246
244335
244440
244536
244646
244831
245028
245095
245170
245238
245305
245362
245407
245481
245631
245751
245854
245949
246065
246154
246308
246394
246466
246425
244931
243984
243025
242112
241382
240843
240553
240416
240422
240478
240853
240904
240966
241012
241052
241049
241080
241106
241207
241282
241889
242020
242181
242289
242397
242420
242459
242481
242485
242509
242588
242678
242778
242870
242982
243084
243217
243293
243415
243519
243737
243893
243981
244095
244168
244272
244371
244470
244572
244715
244927
245034
245135
245181
245270
245341
245407
245471
245570
245610
245849
245962
246083
246177
246294
246395
246510
246564
246559
246292
244077
243056
242197
241479
240963
240672
240577
240594
240698
240822
241254
241278
241343
241357
241407
241437
241476
241556
241724
241870
242470
242562
242663
242689
242743
242738
242743
242741
242736
242772
242898
243016
243123
243188
243315
243423
243519
243624
243726
243820
243977
244155
244263
244345
244420
244508
244635
244724
244800
244982
245109
245162
245213
245270
245339
245408
245481
245559
245629
245895
245997
246118
246206
246213
246121
245752
245126
244274
243373
241085
240653
240444
240387
240457
240565
240715
240848
240972
241053
241238
241209
241261
241314
241447
241652
241820
242005
242180
242314
242498
242533
242538
242541
242536
242552
242587
242645
242697
242798
243039
243203
243310
243421
243502
243589
243702
243796
243874
243996
244190
244335
244435
244543
244624
244725
244793
244892
244981
245169
245271
245321
245385
245471
245519
245578
245673
245759
245862
246216
246304
246402
246377
246163
245703
244937
244017
243019
242094
240399
240194
240168
240252
240356
240485
240577
240692
240773
240816
240897
240897
240952
241063
241212
241399
241613
241789
241952
242072
242224
242279
242304
242300
242338
242365
242435
242498
242595
242665
242945
243117
243223
243327
243458
243538
243628
243715
243801
243947
244138
244287
244390
244491
244566
244668
244755
244823
244909
244978
245213
245262
245376
245425
245495
245551
245658
245708
245835
245907
246303
246387
246530
246630
246682
246536
246160
245455
244545
243513
241007
240526
240300
240223
240269
240376
240487
240614
240743
240824
240984
240996
241058
241074
241165
241279
241489
241661
241889
242055
242357
242445
242488
242486
242524
242545
242569
242605
242669
242744
242930
243112
243219
243332
243447
243532
243646
243726
243835
244080
244210
244338
244413
244551
244631
244760
244845
244934
245030
245269
245346
245459
245500
245570
245640
245707
245780
245860
245941
246209
246287
246405
246512
246626
246726
246846
246895
246771
246372
243872
242861
242019
241404
240970
240759
240677
240751
240858
241017
241429
241553
241609
241687
241676
241761
241828
241937
242077
242245
242727
242884
242944
243002
243002
242988
242987
243015
242986
243050
243088
243242
243347
243449
243537
243644
243735
243885
243973
244248
244390
244484
244567
244685
244770
244872
244967
245062
245157
245434
245491
245561
245608
245684
245726
245789
245849
245950
246010
246300
246382
246474
246610
246712
246808
246853
246788
246482
245871
243186
242296
241598
241120
240850
240748
240768
240876
241007
241187
241532
241662
241712
241737
241795
241860
241960
242087
242292
242477
242875
243029
243094
243137
243139
243129
243154
243131
243186
243251
243422
243493
243593
243703
243828
243943
244054
244148
244263
244525
244641
244755
244855
244957
245066
245147
245276
245347
245467
245777
245841
245901
245971
246053
246126
246194
246247
246331
246422
246666
246720
246841
246975
247087
247207
247299
247422
247438
247319
245315
244251
243259
242369
241654
241219
240956
240884
240892
241018
241348
241504
241596
241646
241699
241710
241772
241817
241900
242042
242492
242739
242873
242958
243039
243081
243128
243147
243142
243223
243312
243393
243473
243556
243666
243788
243908
244014
244119
244439
244549
244642
244745
244850
244927
245058
245152
245275
245370
245699
245771
245859
245947
246041
246129
246216
246273
246363
246430
246714
246740
246844
246952
247060
247155
247298
247411
247523
247652
247558
247049
246311
245371
244337
243380
242589
241971
241583
241402
241455
241618
241757
241891
241991
242087
242162
242187
242245
242306
242527
242777
242947
243146
243302
243434
243552
243634
243648
243699
243748
243778
243837
243887
243959
244059
244147
244239
244365
244713
244797
244910
245032
245152
245261
245339
245462
245565
245666
246011
246090
246185
246319
246394
246509
246574
246682
246777
246851
247130
247175
247247
247332
247409
247484
247570
247679
247771
247884
248189
248347
248375
248308
247965
247356
246543
245583
244626
243784
242357
242306
242310
242434
242575
242733
242900
243031
243140
243258
243372
243532
243622
243779
243934
244094
244279
244416
244480
244608
244616
244612
244611
244582
244605
244642
244674
244744
244823
245151
245235
245347
245449
245566
245669
245780
245891
245990
246092
246389
246477
246586
246695
246770
246859
246951
247033
247105
247162
247420
247428
247508
247560
247626
247715
247790
247864
247989
248093
248315
248318
248090
247577
246828
245944
244991
244114
243403
242862
242260
242380
242498
242624
242795
242927
243030
243129
243211
243312
243437
243616
243786
243955
244134
244301
244415
244492
244553
244577
244603
244612
244624
244631
244702
244769
244861
244951
245026
245134
245521
245585
245680
245776
245891
245957
246067
246158
246229
246360
246714
246756
246862
246936
247052
247138
247208
247272
247350
247405
247612
247705
247767
247838
247941
248031
248114
248243
248357
248472
248133
247625
246846
245904
244926
244006
243280
242715
242378
242221
242242
242432
242553
242678
242778
242831
242878
242931
242958
243144
243300
243499
243658
243829
243962
244071
244150
244206
244228
244256
244243
244277
244285
244350
244413
244526
244601
244730
244829
245185
245257
245358
245454
245561
245657
245753
245840
245964
246017
246399
246424
246514
246613
246686
246761
246855
246905
246999
247076
247251
247329
247413
247488
247590
247662
247748
247845
247959
248072
248341
248378
248242
247829
247154
246259
245275
244309
243471
242845
241963
242035
242105
242235
242364
242481
242584
242651
242737
242829
242924
243020
243150
243320
243462
243640
243802
243922
244002
244112
244122
244120
244124
244144
244196
244242
244315
244386
244468
244809
244889
244963
245073
245155
245264
245371
245470
245565
245648
245986
246042
246134
246203
246331
246408
246487
246574
246648
246731
246874
246984
247028
247124
247179
247245
247341
247426
247514
247601
247838
247958
247906
247657
247147
246403
245511
244560
243711
242998
241941
241986
242041
242177
242290
242427
242557
242652
242704
242839
242918
243037
243141
243326
243485
243648
243781
243900
243956
244018
243980
243985
243968
243988
244018
244083
244165
244243
244332
244693
244753
244869
244947
245056
245141
245241
245349
245439
245522
245818
245893
245984
246056
246160
246218
246309
246377
246447
246527
246697
246773
246866
246941
247002
247095
247196
247302
247421
247517
247339
246928
246245
245377
244413
243517
242770
242190
241805
241662
241657
241830
241969
242074
242175
242259
242318
242371
242420
242448
242768
242960
243136
243300
243461
243562
243655
243693
243716
243734
243788
243763
243787
243848
243942
244021
244116
244195
244321
244419
244783
244832
244944
245040
245137
245228
245341
245422
245528
245644
245919
246025
246125
246201
246264
246337
246416
246496
246576
246622
246793
246902
246982
247057
247146
247242
247370
247500
247597
247696
247223
246688
245832
244853
243866
242960
242241
241743
241440
241330
241457
241578
241673
241774
241849
241924
241981
242021
242056
242294
242436
242602
242771
242950
243101
243215
243299
243330
243363
243453
243431
243443
243510
243543
243644
243731
243838
243940
244051
244423
244498
244588
244706
244813
244907
244978
245127
245204
245328
245554
245706
245798
245897
245992
246073
246149
246235
246321
246395
246489
246653
246717
246793
246876
246964
247044
247174
247249
247414
247646
247760
247695
247385
246776
245949
244964
243975
243073
241470
241329
241341
241427
241541
241692
241802
241914
241988
242062
242207
242220
242321
242410
242559
242772
242963
243116
243262
243363
243557
243528
243538
243547
243589
243597
243670
243715
243786
243881
244248
244297
244394
244507
244626
244702
244815
244912
245024
245106
245362
245502
245598
245713
245798
245905
245980
246058
246145
246225
246312
246476
246552
246611
246701
246769
246847
246935
247039
247310
247436
247450
247303
246906
246231
245402
244449
243505
242688
241457
241396
241416
241517
241648
241790
241938
242048
242133
242201
242389
242450
242555
242736
242899
243084
243256
243381
243455
243518
243564
243503
243510
243503
243539
243579
243649
243733
243814
243922
244213
244373
244477
244569
244669
244773
244851
244968
245064
245149
245388
245550
245652
245713
245809
245897
245962
246059
246119
246213
246342
246455
246519
246606
246716
246823
246907
247018
247128
246850
246337
245532
244627
243649
242768
242007
241512
241151
241048
241214
241321
241457
241562
241636
241718
241770
241806
241823
241912
242315
242472
242641
242822
242937
243031
243119
243170
243173
243179
243197
243234
243288
243343
243424
243498
243612
243720
243826
243947
244205
244370
244464
244558
244667
244765
244849
244934
245048
245144
245366
245534
245613
245698
245754
245856
245938
246010
246069
246248
246343
246393
246489
246584
246668
246769
246895
247011
247137
247011
246492
245741
244803
243772
242815
241994
241347
240993
240752
240890
240983
241086
241216
241303
241358
241412
241449
241479
241558
241890
242023
242208
242374
242545
242666
242777
242816
242866
242893
242872
242949
243002
243079
243153
243245
243326
243448
243548
243651
243944
244083
244197
244302
244400
244497
244596
244706
244799
244936
245138
245267
245375
245471
245547
245621
245729
245803
245862
246049
246149
246195
246278
246361
246427
246552
246640
246704
246836
247187
247271
247286
247198
246861
246226
245356
244370
243322
242439
240961
240835
240852
240937
241039
241184
241299
241432
241510
241596
241751
241751
241843
241974
242124
242318
242483
242664
242780
242898
243012
243069
243072
243098
243101
243143
243192
243272
243346
243424
243631
243826
243922
244040
244115
244229
244308
244425
244520
244671
244855
245021
245121
245212
245299
245407
245469
245566
245650
245847
245912
245985
246048
246125
246202
246238
246328
246393
246492
246829
246905
247000
247078
247093
246914
246462
245762
244843
243865
241590
241181
240991
240947
241002
241093
241279
241417
241543
241659
241894
241894
241973
242032
242204
242329
242528
242696
242882
242996
243135
243180
243185
243165
243172
243183
243219
243258
243341
243416
243655
243841
243958
244084
244176
244319
244401
244507
244630
244887
245025
245119
245224
245339
245430
245523
245642
245710
245790
245979
246078
246133
246200
246282
246345
246395
246492
246585
246694
247039
247096
247105
246974
246544
245872
244981
244000
243037
242221
240970
240851
240872
240968
241120
241258
241403
241536
241632
241688
241822
241916
242022
242179
242361
242531
242706
242862
242990
243069
243136
243192
243200
243188
243223
243247
243327
243377
243454
243577
243821
243991
244102
244202
244305
244416
244517
244612
244723
245010
245149
245228
245354
245435
245514
245609
245704
245797
245892
246146
246189
246267
246335
246399
246482
246562
246603
246706
246787
247129
247216
247352
247410
247449
247310
246881
246163
245239
244200
241661
241170
240922
240843
240851
240932
241067
241178
241311
241412
241577
241659
241708
241748
241848
241952
242131
242285
242490
242641
242887
242992
243039
243041
243039
243034
243060
243108
243142
243263
243439
243599
243710
243819
243934
244026
244130
244220
244341
244433
244747
244858
244969
245076
245169
245247
245372
245444
245548
245629
245914
245973
246042
246153
246213
246312
246391
246460
246541
246637
246945
246971
247074
247181
247292
247417
247549
247666
247762
247795
246666
245721
244692
243648
242723
241974
241473
241168
241069
241058
241356
241550
241659
241756
241819
241868
241914
241958
242000
242084
242456
242720
242909
243055
243180
243270
243314
243353
243367
243394
243347
243475
243529
243592
243688
243760
243876
243963
244082
244366
244492
244588
244683
244783
244885
244981
245092
245191
245293
245609
245682
245772
245870
245964
246044
246114
246231
246292
246375
246624
246682
246769
246864
246931
247026
247119
247208
247324
247416
247742
247659
247449
246950
246176
245257
244258
243350
242588
242024
241433
241553
241673
241840
241995
242125
242251
242346
242404
242455
242610
242793
242938
243127
243304
243462
243588
243678
243733
243768
243650
243696
243712
243742
243769
243842
243917
243994
244091
244407
244531
244627
244742
244831
244930
245034
245141
245211
245327
245617
245713
245802
245894
245975
246048
246149
246234
246277
246343
246558
246629
246696
246776
246854
246949
247058
247154
247253
247372
247246
246736
246012
245092
244135
243207
242420
241843
241492
241279
241361
241553
241695
241834
241966
242050
242107
242183
242240
242259
242539
242797
242964
243145
243293
243413
243488
243543
243569
243586
243518
243568
243618
243661
243744
243816
243917
244017
244127
244432
244555
244656
244754
244853
244949
245074
245163
245270
245388
245687
245768
245836
245938
246062
246142
246234
246295
246348
246431
246679
246723
246793
246860
246946
247029
247126
247256
247369
247476
247550
247133
246494
245621
244600
243605
242724
241965
241479
241194
241092
241241
241394
241533
241645
241738
241823
241832
241896
241917
242119
242318
242497
242662
242854
242986
243092
243169
243221
243269
243205
243289
243336
243401
243463
243532
243617
243707
243816
244132
244264
244373
244486
244566
244670
244760
244878
244962
245075
245353
245455
245546
245648
245741
245821
245907
246012
246080
246157
246392
246444
246499
246595
246664
246729
246811
246934
247045
247146
247555
247575
247560
247362
246856
246052
245110
244083
243105
242311
241097
241080
241125
241234
241361
241521
241647
241734
241824
241892
241967
242065
242150
242284
242463
242642
242802
242992
243109
243199
243219
243339
243342
243339
243384
243414
243471
243540
243625
243889
244014
244133
244216
244349
244433
244540
244642
244728
244834
245118
245214
245298
245406
245488
245590
245671
245765
245860
245932
246165
246200
246270
246331
246384
246486
246553
246618
246707
246790
247154
247193
247307
247303
247139
246677
245960
245052
244087
243159
241362
241191
241166
241204
241336
241450
241612
241728
241886
241956
242074
242181
242252
242364
242543
242715
242913
243075
243213
243326
243348
243371
243370
243356
243361
243389
243437
243504
243589
243861
243990
244106
244195
244301
244412
244507
244599
244674
244786
245110
245147
245255
245363
245435
245549
245616
245710
245796
245851
246076
246139
246181
246262
246334
246428
246498
246593
246705
246811
247076
246957
246626
246007
245179
244236
243263
242389
241695
241222
240815
240966
241086
241238
241377
241511
241595
241681
241732
241764
241876
242088
242240
242430
242592
242753
242886
243005
243047
243113
243041
243116
243085
243150
243177
243233
243304
243395
243500
243594
243901
244025
244125
244241
244335
244421
244528
244627
244717
244828
245167
245241
245319
245427
245503
245598
245675
245758
245856
245931
246158
246186
246257
246341
246389
246505
246590
246700
246793
246905
247134
247047
246675
246011
245118
244099
243049
242171
241424
240961
240521
240659
240787
240926
241044
241159
241246
241310
241355
241383
241469
241651
241807
242008
242178
242367
242515
242626
242707
242769
242806
242822
242820
242850
242908
242964
243031
243142
243220
243558
243670
243776
243874
243980
244101
244197
244274
244373
244483
244795
244866
244965
245071
245140
245244
245355
245448
245531
245611
245909
245926
246009
246070
246161
246242
246328
246412
246498
246601
246926
247010
247134
247232
247316
247280
247044
246484
245691
244720
241838
241267
240903
240713
240671
240713
240846
240955
241105
241232
241374
241500
241549
241581
241679
241777
241945
242120
242328
242788
242978
243031
243081
243115
243169
243196
243239
243274
243346
243602
243703
243790
243906
243988
244109
244195
244304
244367
244452
244736
244809
244888
244974
245072
245158
245259
245341
245428
245531
245809
245854
245911
245992
246042
246113
246156
246224
246274
246347
246546
246688
246783
246912
247021
247155
247234
247304
247211
246884
244428
243510
242642
241974
241496
241223
241115
241104
241208
241363
241693
241869
241955
241998
242052
242136
242188
242315
242460
243001
243185
243313
243413
243459
243477
243490
243459
243444
243442
243554
243638
243728
243815
243928
244062
244166
244307
244409
244510
244834
244899
244999
245101
245190
245259
245366
245455
245569
245633
245928
245932
246016
246076
246142
246192
246289
246346
246446
246507
246788
246975
247099
247183
247264
247230
247005
246463
245699
244715
241945
241417
241072
240909
240863
240904
241001
241120
241241
241400
241554
241655
241673
241716
241777
241886
242054
242198
242380
242748
242841
242878
242889
242919
242908
242916
242915
242935
242991
243168
243238
243345
243441
243565
243653
243776
243877
243984
244067
244394
244484
244588
244702
244814
244930
245030
245145
245253
245352
245698
245731
245826
245917
245977
246033
246095
246185
246283
246358
246576
246745
246876
247017
247152
247244
247287
247173
246765
246074
243063
242278
241590
241140
240927
240827
240869
240954
241071
241236
241495
241621
241663
241709
241736
241814
241921
242025
242177
242693
242864
242968
243067
243087
243122
243132
243122
243149
243166
243319
243361
243447
243533
243649
243743
243864
244001
244114
244250
244618
244730
244835
244948
245061
245172
245279
245394
245521
245614
245965
246046
246127
246193
246276
246346
246403
246469
246543
246627
246866
247021
247118
247234
247339
247454
247564
247587
247577
247310
244897
243930
242977
242223
241674
241322
241173
241167
241219
241367
241650
241825
241926
241984
242001
242065
242109
242196
242313
242823
243019
243169
243292
243385
243437
243479
243485
243510
243516
243626
243680
243750
243826
243943
244018
244116
244225
244335
244420
244731
244788
244902
244987
245078
245165
245293
245361
245463
245559
245853
245883
245927
246028
246096
246138
246203
246273
246339
246451
246718
246821
246950
247041
247171
247203
247083
246683
246060
245247
242677
242137
241782
241607
241579
241668
241774
241931
242097
242246
242427
242564
242582
242595
242697
242832
243004
243190
243376
243727
243828
243861
243865
243822
243807
243788
243818
243841
243898
244096
244202
244296
244423
244502
244615
244709
244819
244892
245017
245305
245370
245473
245573
245647
245732
245800
245863
245943
246038
246241
246265
246332
246419
246498
246599
246679
246791
246911
246986
246971
246531
245878
245047
244098
243208
242423
241809
241402
241194
241222
241420
241558
241673
241749
241844
241898
241954
242009
242048
242307
242564
242751
242909
243059
243185
243237
243327
243324
243365
243278
243362
243407
243473
243518
243602
243715
243806
243907
244148
244280
244373
244460
244539
244623
244710
244779
244897
244987
245322
245392
245507
245590
245697
245775
245872
245924
245996
246068
246374
246446
246539
246639
246792
246895
247065
247186
247309
247360
246284
245381
244404
243382
242463
241741
241230
240924
240822
240815
241082
241226
241336
241383
241439
241493
241520
241529
241596
241675
242041
242346
242485
242596
242726
242830
242857
242879
242891
242940
242937
243030
243104
243186
243272
243385
243506
243584
243716
243995
244122
244213
244335
244436
244533
244635
244759
244848
244987
245328
245401
245491
245630
245692
245791
245866
245946
246024
246127
246355
246425
246496
246580
246650
246777
246890
247014
247117
247235
247457
247208
246677
245919
244967
243994
243025
242258
241681
241306
241169
241268
241432
241525
241696
241757
241840
241875
241928
241963
242086
242302
242476
242671
242821
242991
243099
243214
243256
243318
243240
243344
243383
243431
243486
243536
243648
243734
243797
244102
244205
244301
244401
244491
244605
244704
244810
244911
244986
245311
245393
245527
245621
245726
245794
245910
245965
246042
246085
246346
246351
246438
246504
246568
246665
246765
246861
246953
247058
247161
246737
246113
245243
244317
243360
242540
241900
241474
241190
241270
241395
241543
241691
241807
241898
241977
242022
242101
242107
242436
242664
242863
243023
243181
243282
243354
243376
243389
243401
243272
243392
243438
243487
243550
243623
243734
243849
243965
244245
244404
244481
244596
244687
244799
244893
245012
245104
245199
245487
245617
245692
245783
245886
245973
246038
246125
246173
246278
246535
246589
246682
246771
246865
246969
247082
247178
247230
247159
245555
244575
243596
242714
241951
241420
241125
241008
240990
241068
241458
241579
241670
241717
241794
241849
241880
241962
242020
242146
242631
242857
243015
243152
243234
243308
243351
243375
243369
243401
243398
243526
243598
243700
243801
243893
244007
244100
244195
244365
244573
244724
244838
244920
245028
245140
245241
245345
245430
245550
245851
245942
246010
246115
246195
246263
246347
246422
246482
246568
246815
246873
246938
247039
247144
247256
247387
247505
247618
247720
247186
246419
245470
244454
243427
242542
241870
241436
241171
241094
241306
241455
241568
241679
241782
241862
241896
241945
241980
242052
242364
242589
242772
242964
243068
243202
243286
243353
243391
243418
243374
243522
243555
243636
243711
243809
243895
244042
244133
244447
244557
244668
244761
244842
244939
245040
245131
245259
245364
245716
245807
245887
245967
246063
246183
246267
246345
246442
246516
246778
246848
246900
246971
247050
247139
247231
247309
247415
247523
247875
247919
247920
247720
247224
246452
245502
244462
243519
242709
241488
241467
241515
241619
241774
241918
242069
242203
242322
242387
242497
242635
242766
242929
243107
243279
243457
243593
243733
243834
243822
243883
243903
243894
243910
243939
244018
244071
244178
244436
244579
244684
244816
244903
245020
245116
245220
245334
245426
245738
245810
245881
245982
246070
246182
246241
246327
246417
246469
246656
246713
246770
246828
246903
246967
247054
247158
247205
247339
247692
247746
247792
247652
247304
246643
245774
244790
243799
242990
241561
241487
241549
241649
241773
241937
242081
242212
242324
242420
242528
242664
242786
242921
243115
243284
243446
243594
243706
243802
243771
243826
243831
243796
243837
243875
243931
244016
244090
244376
244521
244626
244756
244864
244951
245049
245147
245273
245357
245673
245754
245846
245935
246057
246146
246253
246314
246407
246496
246735
246772
246825
246895
246965
247028
247109
247223
247311
247424
247767
247781
247670
247283
246592
245715
244698
243696
242779
242056
241114
241190
241271
241395
241511
241664
241771
241877
241926
242009
242085
242247
242356
242527
242707
242897
243059
243198
243284
243386
243434
243429
243416
243454
243448
243490
243576
243663
243717
244059
244174
244284
244412
244490
244621
244711
244793
244901
244976
245314
245365
245461
245579
245660
245749
245827
245927
246018
246078
246308
246356
246433
246492
246577
246649
246741
246828
246938
247047
247411
247498
247544
247380
246952
246211
245296
244263
243264
242372
240977
240914
240946
241035
241150
241269
241410
241516
241608
241650
241702
241813
241902
242021
242197
242383
242585
242728
242878
243088
243152
243184
243200
243183
243232
243250
243316
243381
243446
243702
243853
243928
244043
244140
244239
244332
244439
244517
244639
244973
245049
245151
245255
245352
245465
245540
245640
245738
245818
246048
246096
246151
246232
246297
246366
246447
246532
246617
246726
247070
247119
247126
246922
246457
245733
244795
243814
242866
242073
240893
240915
240975
241094
241246
241393
241538
241662
241733
241814
241888
242048
242155
242331
242524
242695
242867
243021
243090
243188
243130
243144
243132
243114
243140
243174
243225
243306
243390
243481
243802
243922
244005
244113
244201
244282
244381
244478
244559
244654
244986
245039
245138
245207
245279
245364
245429
245501
245557
245612
245853
245893
245985
246074
246182
246279
246392
246487
246544
246463
244771
243811
242813
241960
241240
240786
240498
240437
240418
240531
240909
241085
241180
241283
241314
241389
241396
241467
241570
241717
242185
242435
242534
242626
242685
242716
242721
242728
242709
242768
242789
242917
242982
243087
243217
243317
243404
243510
243602
243914
244025
244112
244195
244314
244397
244521
244617
244751
244828
245155
245194
245277
245367
245431
245487
245587
245635
245701
245793
246087
246126
246260
246371
246465
246537
246504
246252
245709
244892
241959
241112
240564
240181
240048
240028
240116
240199
240356
240473
240716
240803
240838
240862
240916
240966
241100
241250
241434
241632
242050
242179
242251
242275
242310
242314
242342
242359
242382
242464
242597
242796
242908
242992
243091
243207
243336
243438
243543
243803
243942
244045
244161
244276
244398
244481
244596
244677
244792
245072
245131
245207
245274
245358
245429
245505
245592
245663
245753
246066
246161
246274
246379
246509
246573
246562
246349
245834
245013
242009
241146
240537
240169
240013
239996
240041
240185
240301
240485
240735
240856
240900
240933
240971
241018
241144
241285
241473
241662
242081
242232
242303
242320
242346
242361
242349
242402
242439
242491
242597
242740
242858
242960
243049
243158
243256
243373
243457
243730
243864
243954
244059
244186
